Name,Enes Ozkan
Date of Birth,"5 Nov 2001"
Recorded Date,2024-01-22 14:03:13 +0000
Classification,Sinus Rhythm
Symptoms,
Software Version,1.90
Device,"Watch6,14"
Sample Rate,512 hertz


Lead,Lead I
Unit,µV

221.854
229.854
235.373
235.061
231.892
228.392
226.301
228.475
232.877
237.434
241.677
244.325
246.083
247.841
249.345
250.642
251.605
251.993
251.894
251.366
250.327
248.719
246.506
243.646
240.118
235.911
231.012
225.424
219.197
212.427
205.252
197.81
190.24
182.656
175.151
167.845
160.884
154.398
148.527
143.405
139.131
135.835
133.672
132.669
132.76
133.792
135.439
137.373
139.368
141.082
142.091
142.268
141.69
140.534
139.306
138.554
138.401
139.001
140.806
142.618
142.801
141
135.371
126.077
114.222
95.768
67.862
27.708
-27.736
-93.636
-164.474
-235.712
-301.853
-362.405
-417.254
-465.41
-507.384
-542.423
-570.55
-593.03
-610.85
-625.743
-639.455
-652.754
-665.989
-679.295
-692.405
-705.152
-717.461
-728.596
-737.496
-743.574
-746.625
-746.384
-742.599
-734.793
-722.141
-704.656
-683.227
-658.676
-631.791
-603.668
-575.477
-548.644
-525.049
-505.793
-490.994
-480.511
-473.838
-470.071
-468.232
-467.219
-465.668
-462.678
-457.938
-451.372
-443.258
-434.113
-424.458
-414.741
-405.368
-396.536
-388.224
-380.324
-372.607
-364.775
-356.551
-347.766
-338.364
-328.358
-317.824
-306.839
-295.463
-283.778
-271.875
-259.821
-247.674
-235.485
-223.291
-211.149
-199.143
-187.337
-175.775
-164.48
-153.443
-142.65
-132.089
-121.741
-111.579
-101.585
-91.737
-82.018
-72.412
-62.89
-53.418
-43.951
-34.434
-24.817
-15.05
-5.093
5.083
15.496
26.156
37.069
48.236
59.668
71.384
83.403
95.734
108.371
121.298
134.488
147.906
161.503
175.21
188.959
202.688
216.359
229.952
243.457
256.855
270.11
283.175
295.998
308.544
320.801
332.775
344.499
356.015
367.368
378.64
389.919
401.283
412.815
424.539
436.414
448.48
460.86
473.737
487.423
502.154
517.931
534.758
552.656
571.41
590.699
609.976
628.275
644.806
659.284
671.569
681.701
690.123
697.368
704.269
712.175
722.367
735.701
752.672
773.336
796.227
818.647
838.118
852.72
863.109
871.646
878.665
881.108
870.841
839.145
780.92
696.234
595.125
490.167
393.221
316.107
261.221
227.364
212.594
209.987
215.146
223.332
226.671
220.841
203.988
178.085
150.656
127.847
112.547
104.349
99.062
93.78
87.841
81.633
76.748
73.752
72.032
70.985
69.914
68.342
66.211
63.445
59.924
55.671
50.689
44.964
38.546
31.473
23.781
15.553
6.891
-2.109
-11.316
-20.592
-29.834
-38.935
-47.817
-56.404
-64.599
-72.322
-79.5
-86.088
-92.07
-97.437
-102.189
-106.343
-109.935
-113.021
-115.672
-117.958
-119.931
-121.645
-123.152
-124.515
-125.807
-127.089
-128.418
-129.841
-131.387
-133.09
-134.965
-137.012
-139.24
-141.655
-144.22
-146.905
-149.695
-152.559
-155.505
-158.559
-161.676
-164.799
-168.023
-171.465
-175.045
-178.762
-182.636
-186.396
-190.77
-196.464
-202.463
-208.453
-212.57
-212.584
-210.943
-209.276
-210.017
-216.51
-225.789
-235.339
-243.425
-247.188
-248.641
-249.822
-251.174
-253.935
-257.358
-260.492
-263.507
-266.278
-268.878
-271.497
-274.008
-276.296
-278.368
-280.213
-281.825
-283.225
-284.455
-285.565
-286.608
-287.647
-288.725
-289.858
-291.068
-292.371
-293.757
-295.237
-296.829
-298.539
-300.406
-302.49
-304.768
-307.129
-309.378
-311.216
-312.37
-312.669
-311.981
-310.177
-307.291
-303.573
-299.498
-295.819
-293.299
-292.438
-293.444
-296.423
-301.222
-307.302
-313.8
-319.34
-322.367
-321.532
-315.963
-305.097
-288.576
-267.631
-244.907
-223.159
-205.921
-194.27
-186.107
-182.525
-185.759
-200.788
-237.717
-300.299
-388.364
-499.418
-622.139
-745.791
-859.497
-949.175
-1007.515
-1032.708
-1026.27
-995.427
-947.436
-887.028
-820.656
-756.412
-701.024
-659.381
-631.218
-609.843
-589.102
-566.048
-541.389
-519.745
-504.16
-494.787
-490.142
-487.315
-484.59
-481.537
-477.812
-473.628
-469.257
-464.714
-460.305
-456.399
-453.145
-450.831
-449.827
-450.182
-451.779
-454.413
-457.706
-461.318
-465.006
-468.445
-471.306
-473.415
-474.693
-475.156
-474.909
-474.032
-472.597
-470.709
-468.486
-466.04
-463.471
-460.861
-458.284
-455.827
-453.583
-451.647
-450.082
-448.922
-448.181
-447.851
-447.912
-448.339
-449.092
-450.121
-451.378
-452.813
-454.383
-456.046
-457.755
-459.462
-461.116
-462.667
-464.072
-465.304
-466.337
-467.154
-467.743
-468.094
-468.2
-468.063
-467.68
-467.045
-466.155
-465.003
-463.585
-461.9
-459.949
-457.733
-455.253
-452.512
-449.511
-446.255
-442.748
-438.995
-435.003
-430.776
-426.326
-421.662
-416.797
-411.746
-406.524
-401.147
-395.632
-389.998
-384.264
-378.447
-372.569
-366.647
-360.701
-354.752
-348.82
-342.923
-337.082
-331.315
-325.642
-320.081
-314.649
-309.364
-304.242
-299.298
-294.546
-290
-285.672
-281.572
-277.711
-274.097
-270.735
-267.633
-264.794
-262.22
-259.913
-257.872
-256.096
-254.581
-253.323
-252.316
-251.553
-251.026
-250.725
-250.641
-250.761
-251.074
-251.566
-252.225
-253.036
-253.984
-255.054
-256.23
-257.496
-258.837
-260.236
-261.676
-263.142
-264.618
-266.086
-267.534
-268.943
-270.302
-271.595
-272.809
-273.932
-274.951
-275.857
-276.637
-277.284
-277.787
-278.141
-278.337
-278.369
-278.233
-277.924
-277.438
-276.773
-275.926
-274.896
-273.682
-272.284
-270.703
-268.938
-266.991
-264.865
-262.56
-260.08
-257.428
-254.607
-251.621
-248.474
-245.169
-241.712
-238.106
-234.356
-230.467
-226.442
-222.287
-218.006
-213.604
-209.084
-204.451
-199.71
-194.865
-189.92
-184.88
-179.747
-174.527
-169.222
-163.837
-158.376
-152.842
-147.24
-141.573
-135.845
-130.06
-124.223
-118.337
-112.406
-106.435
-100.428
-94.389
-88.321
-82.229
-76.118
-69.991
-63.854
-57.711
-51.566
-45.424
-39.291
-33.17
-27.067
-20.986
-14.932
-8.91
-2.924
3.019
8.915
14.76
20.547
26.272
31.93
37.516
43.026
48.456
53.8
59.056
64.219
69.286
74.253
79.117
83.875
88.524
93.062
97.487
101.798
105.994
110.074
114.038
117.887
121.621
125.242
128.75
132.148
135.437
138.62
141.7
144.682
147.57
150.367
153.081
155.716
158.279
160.775
163.212
165.596
167.934
170.234
172.504
174.751
176.984
179.21
181.439
183.678
185.936
188.221
190.536
192.888
195.281
197.722
200.218
202.769
205.375
208.045
210.79
213.616
216.532
219.53
222.595
225.735
228.959
232.235
235.534
238.834
242.1
245.348
248.612
251.86
255.035
258.243
261.608
265.035
268.518
272.066
275.371
279.21
284.342
289.647
294.776
297.683
295.927
292.183
288.234
286.739
291.357
298.832
306.407
312.188
313.055
311.228
308.96
306.748
305.966
305.816
305.278
304.558
303.534
302.283
301.017
299.604
297.944
296.092
294.071
291.887
289.562
287.13
284.631
282.134
279.703
277.354
275.093
272.928
270.863
268.915
267.106
265.449
263.949
262.61
261.442
260.459
259.666
259.04
258.528
258.041
257.504
256.88
256.153
255.331
254.434
253.459
252.392
251.235
249.982
248.651
247.273
245.839
244.329
242.805
241.424
240.478
240.357
241.285
243.302
246.394
250.524
255.669
261.762
268.4
274.823
280.444
284.99
288.51
291.269
293.315
294.605
295.579
297.302
300.943
307.486
317.23
329.763
345.034
363.009
382.655
402.213
418.618
427.424
426.235
414.252
391.439
361.436
325.535
281.203
225.616
151.314
55.214
-54.462
-164.478
-255.051
-309.699
-327.055
-314.289
-284.006
-249.117
-212.761
-172.878
-129.089
-81.22
-33.462
7.497
40.817
66.849
87.456
106.664
123.908
138.429
150.55
159.698
167.749
176.619
186.446
197.224
208.378
219.088
229.114
238.27
245.98
251.701
255.229
256.608
256.133
254.21
251.134
247.162
242.674
238.103
233.779
229.929
226.674
224.04
222.044
220.705
219.993
219.841
220.17
220.9
221.945
223.243
224.725
226.3
227.887
229.396
230.74
231.845
232.641
233.078
233.133
232.805
232.109
231.07
229.722
228.107
226.276
224.276
222.153
219.95
217.707
215.465
213.268
211.159
209.179
207.358
205.717
204.272
203.033
202.003
201.186
200.579
200.176
199.971
199.962
200.146
200.523
201.089
201.838
202.765
203.861
205.12
206.537
208.103
209.812
211.656
213.626
215.715
217.916
220.219
222.613
225.087
227.628
230.223
232.861
235.527
238.209
240.893
243.566
246.216
248.831
251.398
253.904
256.338
258.688
260.941
263.087
265.114
267.011
268.766
270.371
271.815
273.089
274.186
275.096
275.812
276.329
276.641
276.742
276.63
276.3
275.75
274.979
273.986
272.771
271.336
269.682
267.812
265.729
263.438
260.944
258.251
255.365
252.295
249.046
245.627
242.048
238.316
234.443
230.439
226.315
222.082
217.753
213.34
208.854
204.309
199.717
195.091
190.442
185.784
181.127
176.485
171.869
167.289
162.756
158.28
153.871
149.537
145.288
141.129
137.07
133.117
129.275
125.55
121.947
118.47
115.122
111.907
108.825
105.879
103.07
100.396
97.857
95.452
93.178
91.034
89.016
87.12
85.343
83.681
82.127
80.678
79.328
78.071
76.902
75.816
74.805
73.866
72.991
72.175
71.413
70.698
70.026
69.39
68.786
68.208
67.651
67.111
66.581
66.059
65.539
65.017
64.491
63.956
63.41
62.849
62.272
61.675
61.056
60.415
59.748
59.056
58.336
57.588
56.811
56.005
55.169
54.302
53.405
52.477
51.518
50.527
49.505
48.451
47.365
46.247
45.097
43.914
42.699
41.453
40.174
38.863
37.52
36.146
34.74
33.302
31.833
30.332
28.801
27.24
25.649
24.029
22.381
20.706
19.006
17.282
15.535
13.767
11.98
10.176
8.359
6.53
4.693
2.851
1.008
-0.831
-2.663
-4.481
-6.282
-8.06
-9.81
-11.525
-13.201
-14.832
-16.412
-17.933
-19.392
-20.78
-22.092
-23.322
-24.465
-25.515
-26.467
-27.315
-28.058
-28.69
-29.21
-29.614
-29.9
-30.069
-30.118
-30.048
-29.86
-29.555
-29.135
-28.604
-27.966
-27.227
-26.394
-25.472
-24.47
-23.397
-22.262
-21.075
-19.847
-18.589
-17.313
-16.032
-14.759
-13.509
-12.294
-11.13
-10.032
-9.013
-8.09
-7.276
-6.583
-6.025
-5.613
-5.358
-5.269
-5.352
-5.615
-6.064
-6.706
-7.546
-8.59
-9.84
-11.296
-12.958
-14.823
-16.884
-19.134
-21.557
-24.143
-26.882
-29.767
-32.791
-35.948
-39.222
-42.598
-46.062
-49.59
-53.157
-56.731
-60.271
-63.749
-67.151
-70.467
-73.696
-76.832
-79.857
-82.758
-85.525
-88.143
-90.602
-92.892
-95
-96.946
-98.769
-100.524
-102.283
-104.076
-105.913
-107.81
-109.771
-111.814
-113.973
-116.243
-118.624
-121.158
-123.823
-126.567
-129.293
-131.757
-133.72
-135.002
-135.337
-134.556
-132.739
-130.057
-126.884
-123.81
-121.222
-119.465
-119.039
-120.161
-122.656
-126.107
-129.672
-132.347
-133.46
-132.211
-127.54
-118.702
-105.378
-87.757
-66.708
-43.345
-18.829
4.927
25.348
39.878
45.989
41.51
24.826
-5.422
-49.25
-104.345
-167.573
-236.428
-310.595
-390.925
-475.515
-557.618
-625.197
-667.457
-680.429
-667.02
-636.568
-596.353
-548.121
-492.255
-429.769
-367.433
-315.555
-281.137
-264.777
-258.955
-254.597
-246.61
-234.358
-221.922
-212.419
-205.433
-199.449
-192.298
-182.983
-172.257
-161.112
-150.26
-140.372
-132.192
-126.125
-122.338
-120.772
-120.977
-122.534
-125.177
-128.496
-131.997
-135.32
-138.16
-140.355
-141.93
-142.878
-143.189
-142.903
-142.064
-140.739
-139.019
-136.974
-134.669
-132.173
-129.556
-126.912
-124.348
-121.961
-119.851
-118.082
-116.685
-115.685
-115.089
-114.885
-115.058
-115.575
-116.384
-117.444
-118.709
-120.136
-121.689
-123.319
-124.975
-126.606
-128.162
-129.604
-130.907
-132.046
-133.005
-133.772
-134.338
-134.7
-134.863
-134.826
-134.589
-134.15
-133.506
-132.658
-131.611
-130.367
-128.931
-127.309
-125.504
-123.521
-121.366
-119.046
-116.567
-113.935
-111.156
-108.24
-105.196
-102.035
-98.771
-95.417
-91.986
-88.492
-84.949
-81.374
-77.779
-74.181
-70.592
-67.026
-63.499
-60.024
-56.614
-53.282
-50.04
-46.902
-43.877
-40.977
-38.212
-35.591
-33.123
-30.816
-28.677
-26.713
-24.928
-23.328
-21.916
-20.695
-19.667
-18.834
-18.194
-17.749
-17.495
-17.431
-17.553
-17.857
-18.337
-18.987
-19.8
-20.77
-21.887
-23.142
-24.527
-26.032
-27.646
-29.359
-31.16
-33.038
-34.981
-36.978
-39.018
-41.088
-43.178
-45.275
-47.367
-49.445
-51.496
-53.509
-55.474
-57.381
-59.22
-60.98
-62.653
-64.23
-65.703
-67.064
-68.306
-69.423
-70.409
-71.26
-71.973
-72.543
-72.969
-73.249
-73.382
-73.368
-73.208
-72.902
-72.452
-71.861
-71.131
-70.265
-69.267
-68.142
-66.893
-65.527
-64.048
-62.462
-60.775
-58.993
-57.123
-55.17
-53.143
-51.049
-48.894
-46.687
-44.435
-42.147
-39.829
-37.488
-35.133
-32.77
-30.407
-28.048
-25.701
-23.371
-21.065
-18.787
-16.542
-14.335
-12.17
-10.052
-7.984
-5.969
-4.01
-2.11
-0.273
1.501
3.208
4.847
6.416
7.912
9.336
10.687
11.963
13.165
14.294
15.349
16.331
17.242
18.084
18.857
19.563
20.204
20.782
21.299
21.758
22.16
22.51
22.809
23.057
23.256
23.409
23.519
23.589
23.62
23.609
23.566
23.501
23.421
23.335
23.241
23.127
23.009
22.899
22.775
22.62
22.42
22.154
21.845
21.537
21.208
20.821
20.485
20.329
20.278
20.343
20.548
20.622
21.302
23.302
25.602
27.896
28.31
24.604
19.26
13.933
11.087
14.105
19.995
26.22
31.04
31.58
29.895
28.064
26.548
26.615
27.525
28.329
29.205
30.03
30.863
31.894
32.993
34.058
35.118
36.177
37.219
38.245
39.259
40.261
41.267
42.297
43.337
44.378
45.42
46.458
47.49
48.515
49.527
50.522
51.496
52.45
53.38
54.286
55.164
56.014
56.833
57.619
58.37
59.085
59.761
60.396
60.99
61.54
62.044
62.503
62.915
63.28
63.595
63.86
64.072
64.231
64.334
64.38
64.365
64.289
64.151
63.95
63.688
63.366
62.985
62.548
62.059
61.52
60.932
60.298
59.621
58.904
58.153
57.374
56.573
55.758
54.937
54.117
53.308
52.512
51.733
50.971
50.225
49.497
48.797
48.125
47.486
46.889
46.339
45.854
45.452
45.138
44.915
44.783
44.744
44.809
44.991
45.293
45.713
46.247
46.886
47.632
48.49
49.447
50.472
51.504
52.465
53.303
53.971
54.436
54.634
54.442
53.824
52.851
51.671
50.528
49.584
48.83
48.329
48.268
48.641
49.326
49.964
49.8
48.412
45.877
42.25
37.609
32.246
26.423
20.887
17.081
15.877
17.411
21.73
28.697
38.28
50.741
65.69
82.048
99.208
117.124
135.926
154.805
171.299
182.601
186.144
182.562
175.359
165.989
154.784
136.356
99.834
37.274
-57.094
-178.423
-309.748
-431.054
-520.076
-565.444
-570.199
-544.549
-505.227
-463.138
-420.688
-377.023
-327.995
-273.084
-215.719
-160.087
-111.059
-71.308
-41.341
-20.685
-7.724
-0.733
1.65
1.103
-0.727
-2.39
-2.463
-0.294
4.007
10.086
17.437
25.39
33.324
40.548
46.289
50.247
52.489
53.22
52.838
51.742
50.272
48.859
47.936
47.721
48.298
49.65
51.661
54.248
57.343
60.833
64.602
68.547
72.589
76.676
80.748
84.727
88.523
92.041
95.215
98.014
100.415
102.416
104.027
105.265
106.16
106.756
107.09
107.2
107.121
106.881
106.521
106.08
105.601
105.129
104.698
104.332
104.049
103.862
103.778
103.801
103.932
104.166
104.5
104.935
105.472
106.112
106.857
107.705
108.655
109.704
110.85
112.093
113.43
114.861
116.384
117.998
119.701
121.493
123.371
125.329
127.364
129.469
131.637
133.862
136.135
138.449
140.795
143.165
145.55
147.944
150.336
152.717
155.08
157.414
159.709
161.958
164.149
166.274
168.322
170.283
172.149
173.909
175.553
177.071
178.455
179.695
180.782
181.708
182.465
183.045
183.443
183.651
183.665
183.479
183.091
182.496
181.692
180.679
179.455
178.02
176.377
174.525
172.469
170.213
167.76
165.117
162.29
159.287
156.116
152.785
149.306
145.689
141.945
138.087
134.128
130.082
125.961
121.781
117.556
113.3
109.03
104.758
100.499
96.269
92.08
87.946
83.88
79.894
75.999
72.207
68.528
64.97
61.543
58.253
55.107
52.11
49.267
46.581
44.055
41.69
39.486
37.444
35.561
33.836
32.266
30.846
29.572
28.44
27.441
26.571
25.822
25.187
24.658
24.228
23.887
23.629
23.446
23.329
23.272
23.266
23.305
23.383
23.493
23.629
23.787
23.962
24.149
24.346
24.548
24.754
24.962
25.169
25.376
25.58
25.783
25.984
26.183
26.382
26.581
26.781
26.984
27.191
27.403
27.624
27.853
28.093
28.344
28.609
28.889
29.183
29.492
29.817
30.156
30.511
30.878
31.257
31.647
32.045
32.449
32.855
33.261
33.663
34.058
34.442
34.811
35.161
35.488
35.787
36.055
36.288
36.482
36.634
36.74
36.796
36.8
36.749
36.64
36.471
36.239
35.944
35.584
35.157
34.664
34.105
33.479
32.789
32.034
31.216
30.337
29.4
28.407
27.361
26.265
25.122
23.936
22.711
21.45
20.159
18.84
17.497
16.135
14.758
13.368
11.97
10.566
9.16
7.755
6.353
4.958
3.573
2.199
0.839
-0.505
-1.831
-3.138
-4.424
-5.689
-6.931
-8.15
-9.346
-10.519
-11.668
-12.793
-13.895
-14.974
-16.031
-17.067
-18.082
-19.079
-20.057
-21.018
-21.964
-22.895
-23.812
-24.715
-25.606
-26.484
-27.35
-28.204
-29.047
-29.878
-30.698
-31.508
-32.306
-33.094
-33.871
-34.637
-35.39
-36.13
-36.856
-37.568
-38.263
-38.94
-39.599
-40.237
-40.852
-41.443
-42.008
-42.543
-43.046
-43.513
-43.942
-44.33
-44.672
-44.967
-45.211
-45.403
-45.539
-45.619
-45.638
-45.597
-45.492
-45.322
-45.085
-44.779
-44.403
-43.956
-43.436
-42.845
-42.182
-41.448
-40.643
-39.771
-38.831
-37.827
-36.762
-35.638
-34.46
-33.233
-31.963
-30.655
-29.317
-27.958
-26.587
-25.212
-23.843
-22.489
-21.158
-19.86
-18.604
-17.397
-16.248
-15.163
-14.152
-13.221
-12.38
-11.638
-11.002
-10.479
-10.077
-9.802
-9.66
-9.655
-9.786
-10.051
-10.449
-10.978
-11.642
-12.439
-13.364
-14.409
-15.565
-16.821
-18.167
-19.586
-21.051
-22.536
-24.017
-25.473
-26.9
-28.298
-29.664
-30.995
-32.279
-33.508
-34.686
-35.825
-36.926
-37.99
-39.018
-40.023
-41.053
-42.172
-43.428
-44.864
-46.484
-48.265
-50.198
-52.288
-54.542
-56.976
-59.583
-62.313
-65.158
-68.142
-71.225
-74.312
-77.185
-79.507
-80.984
-81.42
-80.692
-78.744
-75.704
-71.806
-67.426
-63.149
-59.527
-57.034
-55.985
-56.419
-57.991
-60.134
-62.207
-63.375
-62.766
-59.398
-52.32
-41.029
-25.695
-6.877
14.77
38.256
62.177
83.786
99.24
105.335
100.255
85.038
62.156
33.03
-2.633
-49.525
-112.858
-195.822
-298.944
-412.695
-523.36
-616.116
-675.334
-697.021
-684.509
-643.964
-585.957
-516.957
-440.645
-363.999
-295.282
-241.081
-205.84
-187.172
-175.766
-164.964
-151.764
-136.776
-124.936
-118.353
-115.473
-113.871
-110.626
-104.626
-96.551
-87.248
-77.528
-68.016
-59.433
-52.614
-47.987
-45.577
-45.096
-46.097
-48.208
-51.067
-54.183
-57.019
-59.218
-60.611
-61.176
-60.99
-60.098
-58.532
-56.362
-53.7
-50.656
-47.328
-43.797
-40.115
-36.361
-32.643
-29.075
-25.771
-22.81
-20.23
-18.052
-16.285
-14.928
-13.964
-13.362
-13.076
-13.057
-13.261
-13.646
-14.173
-14.797
-15.466
-16.126
-16.724
-17.222
-17.594
-17.819
-17.885
-17.782
-17.504
-17.053
-16.438
-15.665
-14.735
-13.651
-12.414
-11.03
-9.505
-7.848
-6.066
-4.168
-2.161
-0.053
2.149
4.436
6.801
9.237
11.736
14.289
16.885
19.515
22.165
24.825
27.481
30.122
32.736
35.31
37.835
40.299
42.693
45.008
47.234
49.364
51.39
53.305
55.103
56.778
58.325
59.74
61.02
62.162
63.163
64.023
64.741
65.317
65.751
66.045
66.2
66.219
66.104
65.858
65.486
64.991
64.378
63.652
62.819
61.884
60.854
59.734
58.531
57.252
55.903
54.49
53.02
51.5
49.935
48.333
46.699
45.039
43.361
41.67
39.971
38.271
36.573
34.884
33.208
31.549
29.91
28.297
26.712
25.159
23.64
22.159
20.718
19.319
17.964
16.653
15.389
14.171
13
11.876
10.799
9.768
8.783
7.843
6.945
6.09
5.275
4.499
3.759
3.053
2.38
1.737
1.121
0.531
-0.036
-0.581
-1.107
-1.614
-2.104
-2.58
-3.041
-3.489
-3.926
-4.351
-4.766
-5.171
-5.567
-5.953
-6.329
-6.696
-7.052
-7.398
-7.733
-8.056
-8.366
-8.664
-8.948
-9.218
-9.472
-9.71
-9.932
-10.135
-10.32
-10.485
-10.63
-10.756
-10.861
-10.945
-11.01
-11.056
-11.084
-11.095
-11.09
-11.072
-11.041
-11.001
-10.953
-10.899
-10.844
-10.788
-10.736
-10.691
-10.655
-10.631
-10.622
-10.631
-10.66
-10.713
-10.79
-10.894
-11.027
-11.19
-11.385
-11.612
-11.873
-12.168
-12.496
-12.858
-13.252
-13.678
-14.134
-14.619
-15.129
-15.662
-16.215
-16.785
-17.368
-17.96
-18.556
-19.153
-19.746
-20.33
-20.899
-21.45
-21.977
-22.476
-22.942
-23.371
-23.759
-24.102
-24.396
-24.64
-24.83
-24.964
-25.041
-25.059
-25.017
-24.915
-24.753
-24.532
-24.253
-23.916
-23.524
-23.078
-22.582
-22.038
-21.449
-20.819
-20.151
-19.45
-18.719
-17.963
-17.185
-16.391
-15.584
-14.769
-13.95
-13.13
-12.315
-11.507
-10.71
-9.927
-9.16
-8.412
-7.685
-6.98
-6.298
-5.64
-5.006
-4.396
-3.809
-3.245
-2.703
-2.182
-1.681
-1.198
-0.731
-0.279
0.161
0.589
1.009
1.421
1.827
2.228
2.625
3.02
3.413
3.805
4.195
4.585
4.975
5.364
5.752
6.137
6.519
6.897
7.268
7.63
7.981
8.318
8.638
8.938
9.217
9.469
9.694
9.887
10.046
10.168
10.251
10.291
10.288
10.238
10.141
9.997
9.805
9.566
9.281
8.952
8.58
8.168
7.72
7.239
6.728
6.192
5.635
5.063
4.481
3.895
3.311
2.735
2.174
1.635
1.125
0.65
0.217
-0.167
-0.496
-0.763
-0.963
-1.087
-1.132
-1.091
-0.961
-0.736
-0.414
0.008
0.531
1.155
1.88
2.704
3.624
4.637
5.739
6.923
8.185
9.517
10.914
12.368
13.872
15.418
16.997
18.602
20.223
21.848
23.468
25.073
26.652
28.194
29.69
31.129
32.499
33.793
35.003
36.12
37.133
38.028
38.796
39.436
39.946
40.33
40.594
40.744
40.792
40.759
40.663
40.519
40.339
40.126
39.885
39.631
39.381
39.159
38.98
38.842
38.738
38.658
38.591
38.52
38.412
38.21
37.861
37.332
36.603
35.671
34.527
33.136
31.461
29.465
27.12
24.431
21.407
18.054
14.388
10.438
6.268
1.995
-2.261
-6.411
-10.382
-14.118
-17.55
-20.553
-22.997
-24.75
-25.684
-25.706
-24.744
-22.702
-19.462
-14.967
-9.239
-2.437
5.112
13.117
21.363
29.579
37.406
44.483
50.491
55.402
59.689
63.85
68.165
73.088
79.122
86.644
96.142
106.561
114.897
118.603
115.432
106.082
94.516
82.369
69.241
48.707
9.215
-57.2
-155.01
-276.909
-404.445
-518.081
-597.259
-633.826
-633.54
-606.456
-567.246
-522.409
-469.431
-406.565
-333.134
-256.389
-188.583
-137.362
-104.516
-84.401
-68.831
-53.614
-38.657
-27.022
-20.963
-19.521
-20.023
-19.347
-15.939
-10.005
-2.249
6.495
15.53
24.192
31.664
37.179
40.451
41.64
41.077
39.197
36.425
33.162
29.881
27.064
24.979
23.707
23.244
23.492
24.374
25.846
27.811
30.157
32.788
35.609
38.545
41.536
44.496
47.331
49.947
52.248
54.178
55.71
56.829
57.545
57.876
57.845
57.487
56.849
55.976
54.915
53.708
52.395
51.02
49.631
48.276
47.003
45.847
44.831
43.972
43.28
42.761
42.419
42.254
42.259
42.43
42.765
43.264
43.928
44.756
45.744
46.887
48.182
49.624
51.212
52.94
54.807
56.807
58.938
61.196
63.578
66.079
68.692
71.409
74.223
77.123
80.101
83.148
86.251
89.401
92.587
95.798
99.025
102.256
105.481
108.688
111.867
115.006
118.094
121.119
124.069
126.933
129.699
132.355
134.89
137.292
139.551
141.656
143.596
145.363
146.946
148.337
149.529
150.513
151.284
151.835
152.163
152.262
152.131
151.766
151.168
150.336
149.271
147.974
146.448
144.697
142.726
140.538
138.142
135.544
132.752
129.777
126.628
123.318
119.857
116.259
112.537
108.705
104.778
100.77
96.695
92.57
88.408
84.226
80.037
75.856
71.697
67.575
63.501
59.488
55.548
51.692
47.929
44.269
40.72
37.289
33.983
30.807
27.765
24.862
22.098
19.476
16.996
14.655
12.453
10.385
8.448
6.636
4.943
3.364
1.89
0.514
-0.772
-1.977
-3.11
-4.179
-5.195
-6.167
-7.102
-8.012
-8.904
-9.786
-10.668
-11.555
-12.456
-13.377
-14.323
-15.301
-16.314
-17.367
-18.463
-19.605
-20.793
-22.029
-23.312
-24.642
-26.015
-27.43
-28.883
-30.369
-31.883
-33.421
-34.977
-36.544
-38.116
-39.686
-41.248
-42.793
-44.316
-45.81
-47.266
-48.679
-50.041
-51.348
-52.592
-53.768
-54.87
-55.896
-56.839
-57.696
-58.465
-59.142
-59.727
-60.217
-60.613
-60.916
-61.126
-61.247
-61.28
-61.231
-61.103
-60.902
-60.633
-60.301
-59.914
-59.478
-59
-58.486
-57.945
-57.383
-56.808
-56.227
-55.647
-55.076
-54.521
-53.987
-53.482
-53.013
-52.585
-52.203
-51.875
-51.603
-51.394
-51.251
-51.177
-51.176
-51.25
-51.4
-51.627
-51.931
-52.311
-52.767
-53.297
-53.898
-54.568
-55.303
-56.1
-56.956
-57.866
-58.827
-59.833
-60.881
-61.965
-63.082
-64.227
-65.394
-66.58
-67.78
-68.988
-70.201
-71.412
-72.618
-73.813
-74.993
-76.153
-77.288
-78.393
-79.466
-80.501
-81.496
-82.446
-83.348
-84.201
-85
-85.745
-86.433
-87.062
-87.631
-88.138
-88.582
-88.962
-89.276
-89.524
-89.704
-89.814
-89.855
-89.824
-89.721
-89.545
-89.295
-88.972
-88.574
-88.101
-87.555
-86.935
-86.243
-85.479
-84.645
-83.743
-82.775
-81.744
-80.651
-79.499
-78.292
-77.033
-75.724
-74.368
-72.97
-71.533
-70.06
-68.555
-67.022
-65.466
-63.89
-62.3
-60.701
-59.096
-57.491
-55.891
-54.3
-52.724
-51.167
-49.633
-48.127
-46.654
-45.217
-43.819
-42.465
-41.156
-39.894
-38.681
-37.518
-36.406
-35.343
-34.33
-33.367
-32.45
-31.58
-30.755
-29.972
-29.229
-28.523
-27.85
-27.208
-26.592
-25.998
-25.422
-24.86
-24.308
-23.76
-23.214
-22.666
-22.11
-21.543
-20.96
-20.359
-19.735
-19.084
-18.404
-17.692
-16.945
-16.163
-15.346
-14.494
-13.607
-12.686
-11.734
-10.753
-9.745
-8.714
-7.663
-6.596
-5.517
-4.432
-3.346
-2.265
-1.195
-0.144
0.881
1.873
2.826
3.734
4.592
5.396
6.14
6.823
7.443
7.997
8.482
8.893
9.227
9.484
9.663
9.767
9.799
9.761
9.662
9.512
9.321
9.097
8.843
8.555
8.237
7.894
7.537
7.179
6.831
6.506
6.223
6.009
5.886
5.873
5.974
6.177
6.48
6.889
7.417
8.085
8.898
9.847
10.927
12.129
13.44
14.841
16.283
17.707
19.056
20.275
21.333
22.213
22.882
23.31
23.441
23.185
22.553
21.643
20.592
19.631
18.953
18.653
18.944
20.119
22.216
25.064
28.235
30.995
32.842
33.63
33.118
30.997
27.356
22.603
17.649
13.956
12.59
14.041
18.916
27.98
41.543
59.598
81.487
105.695
131.006
156.544
180.816
201.641
216.917
224.511
222.526
209.813
184.924
146.196
94.278
32.319
-36.826
-109.9
-186.579
-270.526
-360.492
-450.926
-531.336
-585.261
-602.843
-583.58
-533.872
-468.314
-400.79
-337.793
-282.36
-233.436
-187.007
-143.352
-103.809
-69.044
-42.049
-23.369
-11.747
-6.698
-5.882
-6.81
-8.033
-7.954
-5.917
-2.164
3.087
9.484
16.457
23.387
29.588
34.326
37.291
38.593
38.485
37.368
35.672
33.783
32.111
31.073
30.889
31.613
33.223
35.603
38.643
42.259
46.324
50.696
55.26
59.924
64.602
69.213
73.657
77.82
81.622
85.012
87.964
90.47
92.531
94.159
95.384
96.25
96.801
97.078
97.121
96.963
96.648
96.221
95.733
95.23
94.75
94.318
93.952
93.666
93.467
93.358
93.334
93.387
93.511
93.703
93.96
94.282
94.664
95.101
95.587
96.115
96.682
97.283
97.914
98.57
99.249
99.949
100.666
101.4
102.147
102.904
103.667
104.43
105.19
105.942
106.681
107.405
108.108
108.789
109.445
110.073
110.673
111.243
111.781
112.288
112.762
113.202
113.61
113.984
114.325
114.633
114.909
115.151
115.361
115.537
115.681
115.791
115.867
115.909
115.917
115.888
115.824
115.721
115.58
115.398
115.173
114.904
114.587
114.221
113.802
113.327
112.793
112.197
111.535
110.804
110
109.12
108.161
107.12
105.993
104.778
103.474
102.079
100.59
99.008
97.333
95.563
93.7
91.745
89.699
87.564
85.342
83.037
80.651
78.188
75.652
73.049
70.382
67.659
64.884
62.065
59.207
56.318
53.404
50.474
47.533
44.591
41.653
38.728
35.822
32.943
30.097
27.292
24.532
21.824
19.173
16.585
14.063
11.612
9.236
6.937
4.72
2.586
0.538
-1.424
-3.297
-5.08
-6.775
-8.38
-9.896
-11.325
-12.667
-13.926
-15.102
-16.199
-17.22
-18.168
-19.046
-19.859
-20.609
-21.301
-21.939
-22.527
-23.067
-23.566
-24.024
-24.447
-24.838
-25.199
-25.534
-25.845
-26.135
-26.407
-26.663
-26.905
-27.136
-27.356
-27.567
-27.772
-27.971
-28.167
-28.358
-28.547
-28.734
-28.92
-29.103
-29.285
-29.464
-29.64
-29.813
-29.981
-30.144
-30.301
-30.451
-30.592
-30.725
-30.847
-30.958
-31.058
-31.146
-31.221
-31.282
-31.33
-31.363
-31.382
-31.386
-31.375
-31.349
-31.307
-31.25
-31.176
-31.086
-30.979
-30.855
-30.715
-30.558
-30.383
-30.192
-29.984
-29.759
-29.519
-29.263
-28.992
-28.707
-28.409
-28.098
-27.775
-27.441
-27.097
-26.743
-26.382
-26.012
-25.636
-25.254
-24.868
-24.477
-24.083
-23.688
-23.291
-22.895
-22.499
-22.107
-21.718
-21.333
-20.956
-20.586
-20.225
-19.875
-19.538
-19.214
-18.904
-18.611
-18.334
-18.075
-17.834
-17.612
-17.409
-17.224
-17.059
-16.912
-16.784
-16.673
-16.578
-16.499
-16.434
-16.381
-16.338
-16.304
-16.276
-16.252
-16.23
-16.206
-16.178
-16.144
-16.099
-16.041
-15.966
-15.871
-15.751
-15.604
-15.425
-15.211
-14.957
-14.661
-14.319
-13.927
-13.484
-12.986
-12.432
-11.818
-11.144
-10.407
-9.607
-8.743
-7.814
-6.822
-5.767
-4.65
-3.472
-2.235
-0.943
0.404
1.803
3.25
4.742
6.276
7.849
9.456
11.093
12.755
14.439
16.138
17.848
19.564
21.28
22.993
24.697
26.387
28.058
29.707
31.329
32.919
34.473
35.988
37.46
38.885
40.261
41.585
42.855
44.07
45.227
46.327
47.368
48.348
49.266
50.123
50.915
51.644
52.308
52.907
53.44
53.907
54.309
54.645
54.915
55.119
55.258
55.329
55.333
55.267
55.131
54.925
54.647
54.297
53.876
53.384
52.822
52.194
51.501
50.744
49.924
49.041
48.096
47.089
46.024
44.903
43.728
42.502
41.231
39.921
38.579
37.209
35.814
34.391
32.939
31.468
29.984
28.5
27.031
25.588
24.19
22.863
21.632
20.519
19.544
18.713
18.031
17.51
17.162
17.011
17.071
17.329
17.772
18.374
19.104
19.938
20.827
21.694
22.465
23.049
23.367
23.377
23.031
22.285
21.11
19.424
17.175
14.456
11.358
7.994
4.505
0.871
-2.903
-6.577
-9.92
-12.862
-15.298
-17.275
-18.828
-19.498
-18.852
-16.798
-13.333
-8.563
-2.707
4.286
12.379
20.819
28.918
36.385
43.182
49.699
56.579
64.193
72.97
84.063
97.354
111.089
123.58
132.431
137.85
143.452
149.206
152.643
147.017
119.676
65.026
-17.62
-124.875
-242.6
-358.852
-462.037
-538.223
-584.012
-599.933
-590.268
-566.504
-534.874
-498.112
-457.787
-411.47
-359.851
-306.084
-253.186
-205.454
-165.447
-133.636
-109.768
-92.52
-80.257
-71.899
-66.269
-61.867
-57.399
-51.734
-44.322
-35.419
-25.551
-15.159
-4.749
5.074
13.71
20.486
25.078
27.631
28.412
27.778
26.12
23.776
21.138
18.673
16.68
15.314
14.65
14.65
15.265
16.474
18.205
20.365
22.88
25.662
28.645
31.778
34.983
38.181
41.294
44.235
46.93
49.311
51.328
52.96
54.208
55.085
55.617
55.831
55.763
55.458
54.96
54.31
53.548
52.706
51.823
50.941
50.098
49.334
48.68
48.153
47.766
47.527
47.439
47.505
47.723
48.084
48.584
49.22
49.99
50.894
51.93
53.093
54.377
55.777
57.287
58.904
60.621
62.434
64.336
66.322
68.387
70.528
72.736
75.004
77.324
79.687
82.081
84.498
86.927
89.356
91.775
94.174
96.541
98.867
101.14
103.351
105.488
107.541
109.5
111.353
113.09
114.702
116.177
117.506
118.68
119.69
120.528
121.184
121.653
121.926
121.998
121.861
121.512
120.946
120.158
119.147
117.91
116.447
114.758
112.843
110.704
108.345
105.77
102.983
99.989
96.796
93.411
89.841
86.098
82.19
78.129
73.927
69.595
65.147
60.596
55.957
51.242
46.468
41.648
36.798
31.932
27.066
22.214
17.392
12.614
7.894
3.246
-1.317
-5.783
-10.141
-14.378
-18.484
-22.452
-26.271
-29.934
-33.435
-36.769
-39.93
-42.915
-45.722
-48.349
-50.795
-53.062
-55.149
-57.061
-58.798
-60.365
-61.766
-63.006
-64.09
-65.025
-65.817
-66.473
-67.001
-67.409
-67.704
-67.895
-67.991
-68
-67.93
-67.79
-67.589
-67.333
-67.033
-66.694
-66.325
-65.933
-65.525
-65.105
-64.682
-64.259
-63.842
-63.436
-63.043
-62.669
-62.315
-61.985
-61.682
-61.406
-61.161
-60.947
-60.765
-60.616
-60.5
-60.416
-60.365
-60.345
-60.354
-60.393
-60.458
-60.548
-60.66
-60.793
-60.943
-61.108
-61.286
-61.473
-61.667
-61.865
-62.063
-62.258
-62.449
-62.632
-62.804
-62.963
-63.106
-63.23
-63.334
-63.414
-63.468
-63.495
-63.492
-63.456
-63.388
-63.284
-63.144
-62.967
-62.753
-62.502
-62.213
-61.887
-61.525
-61.128
-60.698
-60.236
-59.745
-59.227
-58.685
-58.122
-57.541
-56.947
-56.342
-55.73
-55.115
-54.501
-53.892
-53.292
-52.706
-52.138
-51.592
-51.072
-50.583
-50.128
-49.712
-49.338
-49.01
-48.73
-48.501
-48.325
-48.204
-48.14
-48.133
-48.183
-48.29
-48.454
-48.671
-48.94
-49.258
-49.621
-50.026
-50.468
-50.941
-51.441
-51.962
-52.498
-53.044
-53.593
-54.138
-54.672
-55.189
-55.681
-56.142
-56.563
-56.939
-57.261
-57.526
-57.725
-57.854
-57.907
-57.88
-57.768
-57.567
-57.275
-56.888
-56.405
-55.825
-55.148
-54.376
-53.512
-52.558
-51.517
-50.396
-49.198
-47.931
-46.6
-45.212
-43.773
-42.292
-40.778
-39.238
-37.683
-36.121
-34.563
-33.018
-31.498
-30.011
-28.567
-27.174
-25.839
-24.571
-23.377
-22.26
-21.226
-20.28
-19.426
-18.669
-18.011
-17.454
-16.999
-16.644
-16.389
-16.229
-16.161
-16.177
-16.271
-16.436
-16.668
-16.963
-17.322
-17.737
-18.201
-18.706
-19.238
-19.782
-20.315
-20.811
-21.24
-21.586
-21.833
-21.969
-21.991
-21.885
-21.643
-21.269
-20.754
-20.092
-19.286
-18.337
-17.262
-16.112
-14.941
-13.828
-12.857
-12.086
-11.57
-11.367
-11.509
-12.032
-12.947
-14.219
-15.827
-17.76
-19.998
-22.53
-25.306
-28.196
-31.042
-33.674
-35.909
-37.597
-38.556
-38.528
-37.338
-34.948
-31.491
-27.289
-22.647
-17.763
-12.901
-8.461
-4.709
-1.633
1.186
4.603
9.355
16.023
25.252
37.434
52.596
69.391
84.834
96.562
102.751
102.893
98.379
87.22
65.514
29.816
-24.881
-98.71
-186.539
-281.89
-373.393
-448.871
-500.999
-526.147
-527.091
-512.628
-489.823
-462.741
-433.003
-398.716
-359.229
-316.49
-272.92
-231.678
-195.26
-164.594
-139.592
-119.571
-103.676
-90.972
-80.715
-72.177
-64.239
-55.896
-46.737
-36.73
-26.17
-15.547
-5.189
4.589
13.202
20.079
24.951
27.799
28.845
28.432
26.822
24.27
21.128
17.783
14.54
11.612
9.099
7.033
5.455
4.409
3.903
3.896
4.336
5.172
6.356
7.856
9.644
11.677
13.914
16.326
18.867
21.48
24.112
26.705
29.198
31.539
33.689
35.628
37.356
38.889
40.245
41.442
42.491
43.398
44.164
44.779
45.244
45.574
45.788
45.92
46.012
46.119
46.283
46.542
46.917
47.416
48.047
48.814
49.719
50.767
51.967
53.333
54.878
56.612
58.537
60.645
62.921
65.34
67.88
70.521
73.245
76.044
78.907
81.828
84.801
87.824
90.89
93.99
97.113
100.243
103.369
106.483
109.575
112.638
115.666
118.652
121.589
124.468
127.281
130.017
132.665
135.212
137.646
139.956
142.132
144.166
146.05
147.776
149.339
150.732
151.95
152.989
153.844
154.511
154.986
155.268
155.354
155.243
154.936
154.433
153.736
152.847
151.771
150.509
149.069
147.453
145.669
143.722
141.621
139.374
136.988
134.473
131.84
129.099
126.261
123.337
120.34
117.28
114.17
111.021
107.844
104.651
101.454
98.262
95.088
91.942
88.835
85.775
82.773
79.837
76.976
74.197
71.506
68.911
66.417
64.029
61.751
59.589
57.544
55.62
53.819
52.142
50.589
49.159
47.853
46.669
45.604
44.655
43.819
43.093
42.472
41.95
41.525
41.188
40.936
40.763
40.661
40.626
40.65
40.728
40.855
41.023
41.228
41.464
41.725
42.006
42.302
42.608
42.918
43.228
43.534
43.83
44.112
44.377
44.62
44.839
45.029
45.189
45.316
45.408
45.463
45.48
45.459
45.399
45.299
45.16
44.982
44.765
44.512
44.223
43.898
43.539
43.148
42.724
42.269
41.785
41.271
40.73
40.162
39.568
38.949
38.307
37.644
36.96
36.258
35.539
34.805
34.056
33.296
32.524
31.743
30.954
30.158
29.357
28.55
27.739
26.926
26.109
25.29
24.469
23.646
22.822
21.996
21.169
20.342
19.515
18.69
17.868
17.05
16.24
15.438
14.646
13.867
13.103
12.356
11.629
10.923
10.241
9.587
8.962
8.37
7.814
7.296
6.82
6.389
6.004
5.67
5.389
5.162
4.994
4.887
4.843
4.866
4.958
5.122
5.36
5.674
6.065
6.533
7.077
7.698
8.393
9.161
9.998
10.903
11.872
12.9
13.985
15.119
16.297
17.514
18.76
20.029
21.311
22.598
23.88
25.148
26.393
27.606
28.779
29.902
30.969
31.971
32.902
33.752
34.513
35.177
35.732
36.171
36.487
36.674
36.725
36.637
36.407
36.037
35.53
34.888
34.109
33.194
32.137
30.94
29.61
28.154
26.581
24.907
23.15
21.337
19.497
17.653
15.819
14
12.193
10.401
8.629
6.887
5.191
3.553
1.976
0.472
-0.954
-2.313
-3.629
-4.957
-6.368
-7.906
-9.605
-11.483
-13.529
-15.741
-18.113
-20.627
-23.291
-26.102
-29.038
-32.098
-35.267
-38.496
-41.746
-44.923
-47.799
-50.189
-51.921
-52.825
-52.888
-52.088
-50.28
-47.424
-43.753
-39.57
-35.308
-31.383
-27.812
-24.653
-22.176
-20.467
-19.172
-17.626
-14.808
-9.755
-2.207
7.972
20.905
36.161
52.509
68.022
80.215
86.449
84.608
72.753
49.197
13.893
-31.21
-83.596
-140.963
-202.895
-270.233
-341.047
-409.4
-465.144
-498.343
-504.702
-486.667
-453.193
-413.908
-374.61
-337.172
-300.057
-262.086
-224.359
-189.437
-160.107
-137.452
-121.002
-109.542
-101.362
-95.26
-90.153
-84.551
-77.592
-69.021
-58.829
-47.516
-35.766
-24.035
-12.966
-3.442
4.08
9.446
12.652
14.007
13.829
12.34
9.907
7.001
3.952
1.003
-1.656
-3.961
-5.84
-7.208
-8.06
-8.429
-8.335
-7.805
-6.901
-5.668
-4.16
-2.454
-0.587
1.411
3.443
5.399
7.308
9.22
11.004
12.63
14.103
15.158
16.531
18.946
21.425
23.698
23.951
20.003
14.335
8.61
5.291
7.751
13.072
18.789
23.215
23.534
21.786
20.034
18.734
19.14
20.52
21.929
23.537
25.218
27.03
29.16
31.479
33.88
36.39
39.005
41.708
44.494
47.362
50.31
53.349
56.491
59.724
63.032
66.411
69.853
73.347
76.885
80.454
84.041
87.637
91.229
94.809
98.364
101.884
105.359
108.778
112.13
115.404
118.591
121.679
124.657
127.517
130.246
132.835
135.274
137.553
139.663
141.594
143.338
144.887
146.233
147.37
148.29
148.989
149.462
149.705
149.715
149.49
149.029
148.331
147.398
146.23
144.83
143.202
141.349
139.276
136.989
134.494
131.798
128.91
125.838
122.594
119.186
115.626
111.927
108.1
104.159
100.118
95.989
91.788
87.528
83.224
78.891
74.543
70.194
65.859
61.55
57.282
53.066
48.914
44.84
40.852
36.963
33.181
29.515
25.974
22.564
19.294
16.168
13.191
10.367
7.701
5.193
2.845
0.658
-1.368
-3.235
-4.944
-6.497
-7.899
-9.152
-10.261
-11.231
-12.067
-12.775
-13.362
-13.832
-14.192
-14.45
-14.61
-14.68
-14.665
-14.573
-14.409
-14.18
-13.893
-13.551
-13.163
-12.733
-12.266
-11.768
-11.243
-10.697
-10.132
-9.554
-8.966
-8.371
-7.772
-7.173
-6.576
-5.983
-5.396
-4.817
-4.248
-3.689
-3.142
-2.609
-2.089
-1.585
-1.098
-0.628
-0.176
0.255
0.667
1.057
1.425
1.77
2.092
2.389
2.662
2.909
3.13
3.325
3.495
3.638
3.756
3.849
3.918
3.964
3.989
3.995
3.982
3.954
3.911
3.858
3.796
3.729
3.66
3.593
3.531
3.48
3.444
3.428
3.435
3.471
3.541
3.649
3.801
4.001
4.255
4.566
4.94
5.38
5.892
6.479
7.143
7.888
8.714
9.623
10.615
11.69
12.847
14.083
15.396
16.784
18.242
19.764
21.346
22.98
24.66
26.377
28.123
29.887
31.661
33.434
35.197
36.938
38.647
40.313
41.924
43.471
44.941
46.325
47.609
48.784
49.84
50.767
51.557
52.203
52.699
53.04
53.224
53.249
53.115
52.823
52.374
51.77
51.013
50.108
49.06
47.873
46.552
45.106
43.54
41.863
40.086
38.217
36.267
34.244
32.157
30.014
27.829
25.616
23.392
21.179
18.995
16.862
14.797
12.822
10.953
9.201
7.568
6.042
4.609
3.261
1.988
0.786
-0.359
-1.484
-2.635
-3.844
-5.14
-6.534
-8.025
-9.671
-11.537
-13.568
-15.692
-17.794
-19.709
-21.441
-23.04
-24.357
-25.214
-25.628
-25.601
-25.345
-25.265
-25.323
-25.379
-25.568
-25.999
-26.621
-27.386
-27.719
-26.645
-23.838
-19.119
-12.218
-3.12
8.132
21.247
34.875
46.967
55.863
59.883
57.494
47.53
28.622
-0.024
-37.638
-82.431
-132.275
-184.56
-236.741
-286.207
-329.574
-363.846
-387.46
-399.767
-400.889
-391.66
-372.98
-346.335
-314.413
-280.083
-245.512
-212.475
-182.242
-155.629
-133.518
-116.247
-103.189
-93.311
-85.73
-79.593
-74.163
-68.942
-63.327
-56.956
-49.963
-42.707
-35.562
-28.966
-23.368
-18.991
-16.019
-14.511
-14.285
-15.104
-16.696
-18.696
-20.715
-22.496
-23.86
-24.71
-25.055
-24.894
-24.232
-23.13
-21.664
-19.917
-17.966
-15.869
-13.676
-11.453
-9.282
-7.262
-5.481
-3.996
-2.837
-2.017
-1.538
-1.401
-1.596
-2.093
-2.852
-3.832
-4.997
-6.314
-7.747
-9.251
-10.776
-12.268
-13.68
-14.981
-16.144
-17.151
-17.986
-18.635
-19.089
-19.35
-19.419
-19.292
-18.968
-18.441
-17.712
-16.784
-15.66
-14.349
-12.854
-11.182
-9.338
-7.329
-5.164
-2.849
-0.392
2.2
4.919
7.753
10.69
13.717
16.82
19.987
23.203
26.452
29.721
32.994
36.258
39.499
42.702
45.854
48.939
51.945
54.858
57.664
60.351
62.906
65.317
67.574
69.665
71.582
73.316
74.858
76.2
77.338
78.263
78.972
79.46
79.723
79.758
79.564
79.138
78.48
77.59
76.468
75.117
73.538
71.733
69.707
67.463
65.006
62.341
59.474
56.414
53.167
49.741
46.147
42.395
38.493
34.453
30.287
26.005
21.619
17.142
12.585
7.961
3.282
-1.438
-6.187
-10.952
-15.72
-20.478
-25.214
-29.915
-34.568
-39.161
-43.682
-48.12
-52.463
-56.7
-60.821
-64.816
-68.675
-72.391
-75.956
-79.363
-82.607
-85.683
-88.587
-91.316
-93.867
-96.24
-98.434
-100.448
-102.285
-103.944
-105.431
-106.746
-107.896
-108.884
-109.717
-110.4
-110.941
-111.346
-111.625
-111.784
-111.834
-111.784
-111.644
-111.425
-111.137
-110.792
-110.4
-109.972
-109.521
-109.056
-108.589
-108.13
-107.688
-107.274
-106.896
-106.564
-106.285
-106.069
-105.921
-105.85
-105.861
-105.959
-106.15
-106.437
-106.824
-107.314
-107.908
-108.608
-109.413
-110.324
-111.339
-112.457
-113.674
-114.986
-116.39
-117.88
-119.449
-121.091
-122.798
-124.562
-126.376
-128.229
-130.112
-132.016
-133.932
-135.848
-137.754
-139.641
-141.497
-143.311
-145.072
-146.772
-148.397
-149.94
-151.389
-152.734
-153.967
-155.079
-156.061
-156.906
-157.605
-158.152
-158.542
-158.768
-158.826
-158.712
-158.423
-157.956
-157.309
-156.483
-155.477
-154.292
-152.928
-151.39
-149.679
-147.8
-145.757
-143.556
-141.201
-138.7
-136.06
-133.288
-130.393
-127.382
-124.264
-121.05
-117.749
-114.372
-110.928
-107.428
-103.882
-100.303
-96.7
-93.084
-89.465
-85.854
-82.262
-78.699
-75.177
-71.705
-68.293
-64.953
-61.693
-58.523
-55.452
-52.489
-49.642
-46.917
-44.323
-41.866
-39.552
-37.388
-35.379
-33.529
-31.845
-30.33
-28.988
-27.822
-26.832
-26.019
-25.384
-24.924
-24.638
-24.522
-24.573
-24.788
-25.163
-25.696
-26.38
-27.21
-28.18
-29.282
-30.507
-31.846
-33.288
-34.819
-36.432
-38.115
-39.862
-41.668
-43.524
-45.418
-47.34
-49.275
-51.203
-53.103
-54.943
-56.693
-58.333
-59.845
-61.217
-62.442
-63.506
-64.4
-65.125
-65.672
-66.033
-66.21
-66.199
-66.014
-65.695
-65.292
-64.873
-64.516
-64.271
-64.185
-64.306
-64.661
-65.277
-66.165
-67.283
-68.607
-70.122
-71.809
-73.659
-75.626
-77.59
-79.412
-80.939
-81.994
-82.444
-82.131
-80.822
-78.392
-74.815
-70.194
-64.865
-59.164
-53.305
-47.577
-42.332
-37.722
-33.719
-30.002
-25.7
-19.935
-12.102
-1.596
11.963
28.276
46.498
65.243
82.038
94.063
98.744
93.184
75.806
47.315
8.78
-38.165
-93.278
-158.559
-232.821
-311.399
-383.987
-436.499
-461.299
-455.866
-426.181
-384.574
-338.273
-294.42
-256.049
-221.884
-194.319
-172.299
-154.704
-141.706
-130.747
-121.971
-115.435
-109.935
-105.127
-99.199
-90.795
-79.95
-66.81
-52.253
-37.379
-22.885
-9.595
1.82
11.086
18.063
22.845
25.715
26.957
26.901
25.934
24.338
22.311
20.026
17.591
15.109
12.714
10.511
8.565
6.941
5.683
4.816
4.359
4.309
4.639
5.315
6.301
7.557
9.044
10.715
12.511
14.371
16.227
18.005
19.654
21.138
22.442
23.567
24.524
25.326
25.996
26.565
27.059
27.503
27.918
28.319
28.727
29.167
29.665
30.255
30.957
31.783
32.743
33.835
35.059
36.41
37.878
39.45
41.113
42.858
44.679
46.572
48.531
50.548
52.616
54.728
56.875
59.053
61.257
63.481
65.723
67.978
70.246
72.527
74.82
77.124
79.436
81.757
84.083
86.415
88.752
91.094
93.439
95.788
98.142
100.501
102.866
105.238
107.616
110.001
112.392
114.788
117.188
119.59
121.991
124.388
126.778
129.157
131.519
133.861
136.175
138.458
140.703
142.902
145.051
147.141
149.166
151.119
152.992
154.779
156.471
158.063
159.547
160.916
162.165
163.288
164.279
165.134
165.847
166.415
166.835
167.105
167.223
167.189
167.003
166.667
166.182
165.552
164.78
163.873
162.835
161.674
160.395
159.008
157.521
155.943
154.282
152.55
150.756
148.909
147.022
145.104
143.165
141.216
139.267
137.328
135.408
133.516
131.66
129.849
128.089
126.389
124.753
123.187
121.697
120.285
118.955
117.71
116.55
115.477
114.49
113.589
112.772
112.038
111.383
110.805
110.299
109.862
109.489
109.174
108.913
108.699
108.528
108.393
108.289
108.209
108.15
108.105
108.069
108.039
108.008
107.974
107.933
107.881
107.816
107.734
107.636
107.518
107.38
107.222
107.043
106.845
106.629
106.394
106.144
105.88
105.605
105.321
105.031
104.739
104.449
104.163
103.887
103.624
103.378
103.153
102.954
102.783
102.646
102.543
102.48
102.459
102.482
102.552
102.671
102.84
103.061
103.334
103.659
104.038
104.468
104.949
105.481
106.06
106.687
107.358
108.072
108.825
109.614
110.437
111.289
112.166
113.065
113.98
114.907
115.841
116.778
117.712
118.64
119.556
120.456
121.336
122.191
123.018
123.812
124.571
125.291
125.968
126.602
127.189
127.727
128.216
128.654
129.04
129.374
129.657
129.886
130.064
130.19
130.266
130.291
130.269
130.2
130.087
129.931
129.737
129.505
129.24
128.943
128.617
128.266
127.891
127.496
127.081
126.651
126.206
125.749
125.28
124.803
124.316
123.821
123.317
122.806
122.285
121.756
121.216
120.665
120.101
119.525
118.935
118.329
117.707
117.066
116.406
115.725
115.02
114.291
113.535
112.751
111.937
111.093
110.218
109.312
108.373
107.404
106.403
105.372
104.313
103.226
102.115
100.982
99.83
98.664
97.487
96.306
95.123
93.946
92.779
91.627
90.496
89.391
88.316
87.278
86.281
85.329
84.429
83.584
82.8
82.08
81.428
80.848
80.343
79.914
79.564
79.292
79.099
78.984
78.948
78.988
79.101
79.284
79.533
79.845
80.212
80.628
81.086
81.578
82.096
82.63
83.172
83.714
84.245
84.758
85.243
85.691
86.094
86.442
86.726
86.936
87.064
87.099
87.034
86.859
86.568
86.154
85.612
84.938
84.129
83.183
82.101
80.88
79.522
78.026
76.393
74.625
72.725
70.698
68.55
66.284
63.909
61.436
58.872
56.228
53.51
50.718
47.859
44.942
41.978
38.982
35.973
32.965
29.983
27.06
24.223
21.504
18.924
16.492
14.213
12.098
10.158
8.413
6.871
5.515
4.327
3.288
2.374
1.557
0.786
-0.028
-0.969
-2.113
-3.523
-5.23
-7.26
-9.648
-12.426
-15.615
-19.208
-23.141
-27.338
-31.747
-36.309
-40.96
-45.589
-49.997
-53.978
-57.354
-59.97
-61.708
-62.431
-61.928
-60.068
-56.855
-52.45
-47.202
-41.461
-35.439
-29.387
-23.691
-18.641
-14.285
-10.313
-5.976
-0.542
6.352
14.947
25.539
38.102
51.929
65.521
76.702
83.282
83.41
75.283
57.183
27.807
-12.32
-60.365
-114.058
-171.778
-232.694
-297.613
-362.531
-419.307
-461.383
-482.582
-481.974
-464.897
-434.908
-394.611
-348.241
-299.161
-252.329
-214.952
-188.674
-170.384
-156.934
-143.148
-127.198
-112.061
-98.838
-88.16
-79.949
-71.759
-62.463
-52.297
-41.5
-30.863
-21.234
-13.065
-6.69
-2.41
-0.2
0.201
-0.952
-3.346
-6.587
-10.264
-13.998
-17.445
-20.407
-22.814
-24.621
-25.804
-26.363
-26.317
-25.716
-24.629
-23.134
-21.305
-19.212
-16.924
-14.525
-12.112
-9.8
-7.701
-5.891
-4.413
-3.293
-2.542
-2.167
-2.166
-2.508
-3.148
-4.041
-5.141
-6.413
-7.819
-9.316
-10.853
-12.375
-13.832
-15.184
-16.407
-17.477
-18.376
-19.091
-19.612
-19.938
-20.075
-20.024
-19.785
-19.357
-18.739
-17.933
-16.944
-15.779
-14.443
-12.941
-11.278
-9.461
-7.496
-5.391
-3.151
-0.784
1.705
4.306
7.01
9.804
12.678
15.618
18.613
21.648
24.711
27.787
30.863
33.928
36.967
39.968
42.918
45.804
48.616
51.341
53.968
56.486
58.886
61.159
63.295
65.288
67.13
68.815
70.337
71.693
72.877
73.888
74.722
75.379
75.859
76.161
76.288
76.241
76.023
75.638
75.09
74.385
73.528
72.525
71.385
70.113
68.719
67.21
65.597
63.888
62.094
60.224
58.288
56.296
54.26
52.19
50.095
47.987
45.876
43.771
41.684
39.623
37.599
35.621
33.694
31.827
30.027
28.3
26.656
25.096
23.622
22.245
20.975
19.818
18.785
17.87
17.059
16.362
15.79
15.313
14.91
14.56
14.235
13.951
13.744
13.585
13.427
13.372
13.539
13.844
14.288
14.887
15.356
16.428
18.813
21.475
24.093
24.77
21.237
15.987
10.68
7.792
10.724
16.454
22.417
26.854
26.864
24.511
21.891
19.466
18.511
18.281
17.819
17.306
16.619
15.82
15.105
14.347
13.445
12.436
11.329
10.115
8.801
7.398
5.915
4.375
2.807
1.206
-0.43
-2.09
-3.768
-5.459
-7.153
-8.846
-10.536
-12.213
-13.871
-15.504
-17.107
-18.674
-20.201
-21.685
-23.12
-24.505
-25.836
-27.111
-28.329
-29.487
-30.586
-31.625
-32.603
-33.522
-34.382
-35.185
-35.932
-36.627
-37.273
-37.871
-38.427
-38.944
-39.425
-39.875
-40.298
-40.699
-41.08
-41.446
-41.801
-42.149
-42.493
-42.837
-43.185
-43.537
-43.899
-44.27
-44.654
-45.051
-45.462
-45.889
-46.331
-46.788
-47.261
-47.748
-48.25
-48.765
-49.291
-49.827
-50.371
-50.92
-51.471
-52.022
-52.568
-53.108
-53.637
-54.153
-54.651
-55.13
-55.585
-56.014
-56.415
-56.784
-57.12
-57.42
-57.682
-57.905
-58.087
-58.229
-58.329
-58.387
-58.404
-58.38
-58.315
-58.209
-58.065
-57.883
-57.664
-57.409
-57.121
-56.8
-56.449
-56.07
-55.666
-55.24
-54.793
-54.33
-53.851
-53.361
-52.861
-52.353
-51.84
-51.324
-50.807
-50.29
-49.775
-49.262
-48.753
-48.249
-47.749
-47.254
-46.764
-46.276
-45.792
-45.31
-44.828
-44.346
-43.863
-43.377
-42.887
-42.392
-41.891
-41.381
-40.862
-40.332
-39.79
-39.232
-38.659
-38.068
-37.458
-36.828
-36.178
-35.505
-34.811
-34.093
-33.354
-32.591
-31.807
-31.001
-30.175
-29.329
-28.466
-27.588
-26.697
-25.794
-24.884
-23.969
-23.052
-22.135
-21.223
-20.318
-19.423
-18.541
-17.677
-16.832
-16.01
-15.214
-14.448
-13.715
-13.016
-12.354
-11.732
-11.152
-10.616
-10.124
-9.678
-9.279
-8.927
-8.622
-8.365
-8.153
-7.988
-7.866
-7.786
-7.747
-7.747
-7.782
-7.85
-7.95
-8.076
-8.228
-8.4
-8.591
-8.797
-9.013
-9.237
-9.466
-9.696
-9.923
-10.145
-10.36
-10.564
-10.756
-10.935
-11.098
-11.244
-11.374
-11.486
-11.581
-11.661
-11.726
-11.778
-11.82
-11.853
-11.882
-11.909
-11.938
-11.971
-12.011
-12.064
-12.133
-12.222
-12.335
-12.476
-12.649
-12.858
-13.109
-13.403
-13.746
-14.139
-14.585
-15.085
-15.641
-16.253
-16.92
-17.641
-18.411
-19.227
-20.084
-20.979
-21.909
-22.87
-23.857
-24.864
-25.888
-26.926
-27.975
-29.031
-30.086
-31.132
-32.164
-33.181
-34.189
-35.191
-36.188
-37.17
-38.128
-39.049
-39.927
-40.756
-41.524
-42.215
-42.82
-43.34
-43.795
-44.217
-44.625
-45.026
-45.407
-45.748
-46.057
-46.373
-46.745
-47.233
-47.867
-48.631
-49.562
-50.726
-52.122
-53.71
-55.313
-56.603
-57.416
-57.777
-57.728
-57.355
-56.742
-55.845
-54.921
-54.623
-55.352
-57.258
-60.28
-63.988
-68.099
-72.71
-77.467
-81.366
-83.478
-82.924
-79.211
-72.459
-62.733
-49.851
-34.071
-17.586
-2.958
8.375
14.102
14.208
9.132
-5.756
-32.577
-72.109
-126.733
-191.795
-263.244
-339.802
-413.93
-479.016
-528.936
-555.126
-557.061
-539.682
-507.785
-468.819
-426.63
-380.669
-332.602
-283.936
-236.92
-196.038
-163.471
-139.356
-123.316
-113.681
-108.405
-106.161
-105.396
-104.157
-101.412
-96.782
-90.173
-82.161
-73.549
-64.88
-56.914
-50.607
-46.39
-44.378
-44.498
-46.338
-49.477
-53.567
-58.134
-62.657
-66.789
-70.313
-73.13
-75.266
-76.738
-77.549
-77.744
-77.396
-76.58
-75.374
-73.847
-72.048
-70.038
-67.909
-65.76
-63.693
-61.803
-60.151
-58.769
-57.681
-56.899
-56.415
-56.218
-56.278
-56.553
-57.008
-57.605
-58.307
-59.08
-59.883
-60.669
-61.396
-62.018
-62.507
-62.844
-63.014
-63.009
-62.827
-62.467
-61.934
-61.242
-60.395
-59.4
-58.262
-56.985
-55.575
-54.04
-52.387
-50.625
-48.761
-46.802
-44.752
-42.619
-40.407
-38.121
-35.767
-33.349
-30.873
-28.344
-25.771
-23.161
-20.523
-17.864
-15.192
-12.514
-9.839
-7.173
-4.521
-1.889
0.717
3.293
5.834
8.335
10.793
13.202
15.559
17.861
20.104
22.284
24.397
26.441
28.412
30.307
32.123
33.858
35.509
37.074
38.55
39.937
41.231
42.433
43.541
44.555
45.474
46.297
47.026
47.66
48.2
48.646
48.997
49.256
49.422
49.496
49.478
49.371
49.174
48.889
48.519
48.065
47.53
46.918
46.23
45.472
44.646
43.758
42.811
41.812
40.764
39.673
38.544
37.383
36.194
34.984
33.757
32.518
31.273
30.026
28.783
27.547
26.323
25.115
23.927
22.764
21.63
20.527
19.461
18.433
17.447
16.505
15.611
14.765
13.969
13.225
12.532
11.891
11.301
10.762
10.272
9.83
9.435
9.083
8.772
8.501
8.266
8.065
7.895
7.753
7.637
7.543
7.47
7.415
7.376
7.351
7.337
7.332
7.334
7.341
7.352
7.365
7.377
7.388
7.397
7.402
7.402
7.398
7.39
7.377
7.359
7.339
7.315
7.291
7.265
7.241
7.218
7.199
7.185
7.176
7.174
7.179
7.192
7.213
7.242
7.279
7.323
7.373
7.429
7.488
7.549
7.612
7.673
7.731
7.785
7.831
7.868
7.892
7.902
7.894
7.865
7.813
7.733
7.623
7.48
7.3
7.081
6.819
6.512
6.157
5.753
5.297
4.788
4.225
3.608
2.937
2.212
1.436
0.61
-0.264
-1.183
-2.143
-3.142
-4.174
-5.235
-6.321
-7.427
-8.548
-9.677
-10.811
-11.941
-13.063
-14.17
-15.257
-16.316
-17.342
-18.328
-19.268
-20.157
-20.989
-21.759
-22.46
-23.09
-23.644
-24.117
-24.508
-24.813
-25.031
-25.161
-25.202
-25.154
-25.018
-24.796
-24.489
-24.1
-23.631
-23.085
-22.467
-21.78
-21.028
-20.216
-19.349
-18.43
-17.467
-16.463
-15.425
-14.358
-13.267
-12.158
-11.036
-9.906
-8.773
-7.642
-6.518
-5.404
-4.305
-3.224
-2.164
-1.128
-0.117
0.866
1.822
2.749
3.648
4.519
5.361
6.178
6.968
7.735
8.479
9.201
9.905
10.592
11.264
11.923
12.572
13.213
13.847
14.478
15.106
15.735
16.365
16.999
17.638
18.282
18.933
19.592
20.258
20.932
21.612
22.298
22.988
23.681
24.373
25.061
25.744
26.418
27.078
27.723
28.347
28.949
29.523
30.067
30.576
31.047
31.477
31.862
32.198
32.483
32.714
32.887
33.001
33.053
33.04
32.961
32.814
32.596
32.308
31.949
31.518
31.017
30.446
29.808
29.105
28.342
27.522
26.649
25.73
24.768
23.77
22.742
21.689
20.618
19.536
18.449
17.366
16.294
15.24
14.21
13.214
12.256
11.346
10.49
9.695
8.968
8.317
7.749
7.272
6.893
6.618
6.454
6.407
6.479
6.675
6.996
7.442
8.013
8.708
9.525
10.46
11.512
12.677
13.95
15.327
16.805
18.375
20.032
21.765
23.564
25.417
27.314
29.242
31.187
33.139
35.083
37.01
38.91
40.769
42.574
44.308
45.952
47.491
48.912
50.206
51.366
52.394
53.293
54.077
54.763
55.359
55.872
56.301
56.637
56.87
56.992
56.991
56.871
56.631
56.265
55.777
55.16
54.401
53.481
52.367
51.016
49.404
47.517
45.358
42.965
40.384
37.674
34.905
32.131
29.397
26.755
24.238
21.875
19.696
17.727
16.007
14.591
13.518
12.818
12.506
12.557
12.906
13.461
14.106
14.764
15.383
15.94
16.406
16.727
16.927
17.134
17.561
18.422
19.821
21.675
23.923
26.728
30.172
34.136
38.186
41.571
43.819
44.993
45.274
44.571
42.876
40.453
38.222
37.909
40.899
47.732
58.509
73.203
91.455
112.364
133.96
153.019
166.173
170.542
163.666
143.373
108.972
61.619
3.229
-62.849
-135.34
-215.712
-301.703
-388.521
-466.384
-519.983
-541.905
-531.701
-494.367
-443.676
-387.657
-328.892
-271.623
-214.743
-160.435
-114.798
-77.506
-48.967
-28.243
-11.116
2.065
11.026
16.915
19.961
22.372
26.299
32.079
39.672
48.534
57.91
67.346
76.309
84.084
89.989
93.735
95.432
95.341
93.835
91.293
88.046
84.519
81.178
78.327
76.103
74.558
73.645
73.31
73.535
74.255
75.376
76.822
78.516
80.395
82.42
84.526
86.629
88.649
90.495
92.084
93.372
94.329
94.943
95.229
95.207
94.902
94.356
93.615
92.725
91.728
90.664
89.568
88.482
87.451
86.52
85.732
85.12
84.702
84.495
84.505
84.734
85.182
85.841
86.699
87.747
88.976
90.378
91.945
93.67
95.54
97.541
99.661
101.886
104.204
106.602
109.068
111.589
114.152
116.747
119.362
121.986
124.606
127.207
129.778
132.304
134.773
137.172
139.489
141.713
143.832
145.838
147.722
149.475
151.092
152.566
153.893
155.067
156.086
156.947
157.65
158.193
158.578
158.804
158.874
158.79
158.556
158.174
157.65
156.987
156.19
155.266
154.218
153.053
151.776
150.393
148.91
147.334
145.67
143.925
142.104
140.216
138.264
136.256
134.198
132.094
129.95
127.771
125.563
123.329
121.074
118.802
116.516
114.221
111.918
109.612
107.304
104.996
102.691
100.39
98.096
95.809
93.533
91.268
89.015
86.778
84.556
82.353
80.169
78.006
75.866
73.75
71.659
69.595
67.559
65.552
63.576
61.631
59.719
57.84
55.996
54.187
52.414
50.678
48.979
47.319
45.698
44.118
42.578
41.08
39.624
38.211
36.841
35.515
34.232
32.992
31.794
30.639
29.525
28.452
27.417
26.419
25.458
24.53
23.634
22.767
21.927
21.112
20.318
19.543
18.785
18.04
17.306
16.579
15.858
15.139
14.418
13.694
12.963
12.221
11.467
10.697
9.908
9.098
8.264
7.403
6.515
5.595
4.644
3.659
2.639
1.582
0.489
-0.642
-1.81
-3.016
-4.258
-5.535
-6.847
-8.192
-9.568
-10.972
-12.403
-13.858
-15.334
-16.828
-18.337
-19.858
-21.386
-22.917
-24.449
-25.976
-27.494
-28.999
-30.486
-31.951
-33.391
-34.799
-36.173
-37.508
-38.8
-40.044
-41.237
-42.375
-43.455
-44.473
-45.427
-46.314
-47.132
-47.879
-48.553
-49.154
-49.681
-50.133
-50.51
-50.813
-51.041
-51.196
-51.28
-51.293
-51.239
-51.12
-50.938
-50.697
-50.4
-50.05
-49.651
-49.206
-48.72
-48.197
-47.64
-47.055
-46.445
-45.815
-45.17
-44.513
-43.849
-43.182
-42.516
-41.855
-41.201
-40.559
-39.932
-39.321
-38.731
-38.163
-37.619
-37.102
-36.613
-36.153
-35.723
-35.323
-34.954
-34.616
-34.308
-34.029
-33.779
-33.557
-33.363
-33.193
-33.048
-32.926
-32.825
-32.742
-32.677
-32.628
-32.592
-32.567
-32.553
-32.547
-32.549
-32.556
-32.569
-32.586
-32.605
-32.627
-32.651
-32.676
-32.702
-32.728
-32.756
-32.786
-32.818
-32.852
-32.891
-32.935
-32.985
-33.043
-33.11
-33.188
-33.278
-33.382
-33.501
-33.637
-33.792
-33.968
-34.166
-34.386
-34.631
-34.9
-35.196
-35.516
-35.862
-36.234
-36.629
-37.048
-37.488
-37.949
-38.429
-38.924
-39.434
-39.954
-40.483
-41.016
-41.55
-42.082
-42.608
-43.123
-43.623
-44.105
-44.562
-44.992
-45.389
-45.749
-46.067
-46.339
-46.561
-46.728
-46.836
-46.882
-46.862
-46.773
-46.611
-46.376
-46.064
-45.674
-45.206
-44.659
-44.033
-43.329
-42.549
-41.693
-40.763
-39.761
-38.691
-37.555
-36.357
-35.099
-33.787
-32.424
-31.015
-29.565
-28.08
-26.564
-25.022
-23.461
-21.885
-20.301
-18.712
-17.125
-15.546
-13.979
-12.432
-10.909
-9.417
-7.96
-6.543
-5.171
-3.849
-2.58
-1.369
-0.216
0.873
1.896
2.85
3.734
4.544
5.278
5.934
6.509
7.001
7.408
7.731
7.97
8.123
8.192
8.179
8.087
7.917
7.67
7.347
6.948
6.476
5.935
5.328
4.662
3.943
3.178
2.377
1.548
0.695
-0.177
-1.07
-1.988
-2.93
-3.892
-4.868
-5.849
-6.825
-7.784
-8.707
-9.578
-10.393
-11.15
-11.849
-12.498
-13.091
-13.621
-14.086
-14.472
-14.765
-14.967
-15.081
-15.123
-15.133
-15.149
-15.214
-15.383
-15.693
-16.183
-16.899
-17.873
-19.133
-20.707
-22.624
-24.871
-27.4
-30.105
-32.799
-35.296
-37.43
-39.049
-40.001
-40.335
-40.255
-40.006
-39.989
-40.526
-41.807
-44.026
-47.278
-51.217
-55.232
-58.736
-60.981
-61.405
-59.534
-54.67
-46.317
-34.477
-19.491
-1.808
17.957
39.149
60.603
80.332
96.27
106.282
108.178
99.915
79.392
45.642
-0.23
-56.23
-120.672
-193.847
-277.081
-368.434
-460.491
-540.25
-594.455
-617.159
-611.531
-587.375
-554.042
-514.198
-464.806
-402.978
-331.481
-260.21
-201.579
-162.738
-142.397
-132.293
-123.098
-110.186
-94.151
-78.822
-66.962
-58.288
-50.761
-42.125
-31.64
-19.909
-7.812
3.876
14.675
24.143
31.698
37.032
40.222
41.532
41.353
40.04
37.87
35.194
32.444
29.933
27.84
26.272
25.225
24.684
24.652
25.084
25.899
27.033
28.412
29.972
31.667
33.434
35.204
36.92
38.516
39.932
41.116
42.007
42.572
42.807
42.718
42.329
41.672
40.778
39.688
38.453
37.118
35.725
34.311
32.906
31.544
30.26
29.087
28.059
27.2
26.522
26.034
25.737
25.631
25.711
25.97
26.391
26.962
27.673
28.515
29.48
30.558
31.736
33.003
34.346
35.752
37.212
38.715
40.249
41.804
43.372
44.945
46.515
48.077
49.621
51.141
52.629
54.08
55.486
56.843
58.146
59.39
60.573
61.692
62.747
63.735
64.658
65.516
66.309
67.04
67.709
68.321
68.877
69.38
69.832
70.239
70.601
70.924
71.21
71.462
71.683
71.877
72.045
72.191
72.316
72.423
72.513
72.588
72.65
72.698
72.734
72.759
72.772
72.775
72.767
72.749
72.719
72.679
72.626
72.561
72.482
72.39
72.283
72.161
72.022
71.866
71.693
71.502
71.293
71.065
70.819
70.554
70.271
69.97
69.652
69.318
68.968
68.604
68.226
67.836
67.435
67.024
66.605
66.179
65.748
65.311
64.871
64.429
63.984
63.539
63.092
62.646
62.2
61.754
61.309
60.866
60.424
59.983
59.544
59.106
58.669
58.233
57.796
57.359
56.92
56.48
56.036
55.587
55.134
54.674
54.206
53.728
53.239
52.738
52.222
51.691
51.142
50.575
49.988
49.38
48.75
48.097
47.421
46.722
45.998
45.249
44.475
43.676
42.851
42.001
41.125
40.224
39.297
38.346
37.37
36.371
35.349
34.304
33.238
32.152
31.047
29.924
28.786
27.633
26.47
25.297
24.117
22.934
21.749
20.566
19.386
18.213
17.05
15.897
14.759
13.637
12.535
11.453
10.394
9.361
8.356
7.379
6.433
5.52
4.64
3.795
2.986
2.213
1.478
0.78
0.121
-0.501
-1.086
-1.634
-2.148
-2.628
-3.077
-3.498
-3.893
-4.266
-4.62
-4.958
-5.285
-5.604
-5.92
-6.237
-6.558
-6.89
-7.235
-7.599
-7.985
-8.398
-8.842
-9.321
-9.839
-10.399
-11.005
-11.659
-12.366
-13.128
-13.947
-14.825
-15.765
-16.768
-17.834
-18.964
-20.159
-21.416
-22.735
-24.115
-25.552
-27.045
-28.589
-30.181
-31.818
-33.493
-35.204
-36.944
-38.707
-40.489
-42.283
-44.083
-45.882
-47.675
-49.456
-51.216
-52.952
-54.655
-56.32
-57.94
-59.509
-61.022
-62.471
-63.852
-65.159
-66.387
-67.532
-68.589
-69.554
-70.425
-71.198
-71.872
-72.443
-72.913
-73.278
-73.54
-73.699
-73.756
-73.712
-73.569
-73.33
-72.998
-72.576
-72.067
-71.475
-70.806
-70.063
-69.252
-68.379
-67.448
-66.466
-65.439
-64.374
-63.277
-62.155
-61.014
-59.861
-58.702
-57.545
-56.395
-55.258
-54.141
-53.05
-51.989
-50.964
-49.979
-49.04
-48.149
-47.31
-46.526
-45.799
-45.131
-44.523
-43.977
-43.491
-43.067
-42.703
-42.398
-42.15
-41.955
-41.812
-41.715
-41.66
-41.643
-41.658
-41.698
-41.759
-41.832
-41.913
-41.994
-42.067
-42.126
-42.164
-42.172
-42.143
-42.071
-41.947
-41.765
-41.518
-41.2
-40.804
-40.327
-39.762
-39.106
-38.354
-37.503
-36.552
-35.497
-34.337
-33.072
-31.702
-30.23
-28.657
-26.989
-25.227
-23.379
-21.45
-19.446
-17.375
-15.245
-13.063
-10.838
-8.58
-6.297
-4.001
-1.702
0.59
2.862
5.101
7.297
9.437
11.512
13.51
15.423
17.242
18.959
20.569
22.066
23.445
24.699
25.824
26.817
27.68
28.411
29.013
29.489
29.846
30.09
30.231
30.274
30.225
30.084
29.852
29.533
29.135
28.667
28.138
27.559
26.943
26.312
25.692
25.106
24.564
24.076
23.645
23.288
23.022
22.863
22.824
22.908
23.106
23.418
23.837
24.347
24.922
25.508
26.024
26.403
26.592
26.541
26.218
25.552
24.442
22.875
20.91
18.675
16.375
14.155
12.065
10.27
9.032
8.442
8.45
8.769
8.836
8.322
7.197
5.308
2.368
-1.668
-6.591
-11.712
-15.843
-18.168
-18.314
-15.742
-9.643
0.694
15.617
34.662
56.807
81.333
107.462
133.925
158.002
175.607
184.097
182.197
170.028
149.57
120.033
78.953
24.328
-47.133
-136.193
-240.351
-353.201
-463.567
-556.858
-618.471
-642.934
-631.719
-593.088
-541.001
-481.67
-419.586
-359.487
-301.703
-251.593
-212.065
-179.911
-153.563
-129.039
-104.574
-83.203
-65.995
-53.616
-45.648
-39.345
-33.306
-27.073
-20.131
-12.823
-5.532
1.732
8.643
14.81
20.087
24.203
26.827
27.959
27.759
26.432
24.346
21.838
19.146
16.588
14.484
12.997
12.2
12.077
12.524
13.466
14.834
16.532
18.447
20.473
22.519
24.513
26.387
28.071
29.483
30.541
31.194
31.419
31.215
30.603
29.613
28.28
26.656
24.798
22.762
20.603
18.375
16.122
13.894
11.743
9.72
7.878
6.259
4.892
3.799
2.996
2.492
2.294
2.404
2.816
3.526
4.532
5.831
7.421
9.297
11.451
13.874
16.553
19.478
22.636
26.016
29.602
33.381
37.338
41.459
45.728
50.13
54.646
59.256
63.942
68.683
73.459
78.249
83.033
87.792
92.505
97.153
101.72
106.186
110.536
114.753
118.823
122.73
126.461
130.005
133.349
136.483
139.399
142.088
144.544
146.76
148.733
150.458
151.933
153.156
154.128
154.848
155.317
155.539
155.516
155.254
154.756
154.029
153.079
151.915
150.544
148.974
147.216
145.279
143.172
140.907
138.494
135.946
133.273
130.487
127.601
124.627
121.577
118.462
115.296
112.089
108.853
105.599
102.339
99.083
95.841
92.623
89.44
86.3
83.211
80.183
77.222
74.334
71.524
68.798
66.16
63.612
61.158
58.797
56.533
54.364
52.289
50.307
48.414
46.606
44.878
43.224
41.638
40.112
38.638
37.208
35.815
34.451
33.107
31.777
30.451
29.124
27.79
26.44
25.068
23.664
22.222
20.736
19.202
17.615
15.97
14.263
12.497
10.674
8.801
6.881
4.915
2.9
0.841
-1.254
-3.373
-5.506
-7.645
-9.776
-11.878
-13.921
-15.873
-17.713
-19.438
-21.052
-22.558
-23.956
-25.236
-26.39
-27.428
-28.361
-29.194
-29.927
-30.559
-31.108
-31.624
-32.187
-32.879
-33.751
-34.826
-36.101
-37.571
-39.232
-41.094
-43.159
-45.407
-47.815
-50.369
-53.067
-55.935
-58.92
-61.846
-64.424
-66.284
-67.097
-66.665
-64.893
-61.695
-57.129
-51.47
-45.2
-39.091
-33.968
-30.442
-28.801
-29.161
-31.401
-35.016
-39.224
-42.835
-44.365
-42.322
-35.641
-23.661
-5.892
16.706
41.604
66.185
87.236
102.817
114.405
122.229
123.517
113.756
84.54
28.301
-55.529
-164.048
-291.345
-426.65
-559.481
-678.779
-770.185
-823.288
-834.721
-805.208
-742.423
-659.388
-566.07
-473.027
-391.165
-323.218
-269.597
-227.287
-187.711
-147.685
-107.668
-69.873
-39.607
-18.603
-5.43
2.085
7.09
11.303
15.211
19.342
23.712
28.166
32.656
36.785
40.137
42.509
43.601
43.115
41.095
37.815
33.651
29.13
24.718
20.727
17.492
15.327
14.364
14.622
16.032
18.424
21.643
25.555
29.992
34.775
39.747
44.743
49.616
54.242
58.488
62.258
65.489
68.145
70.217
71.722
72.685
73.151
73.181
72.832
72.165
71.24
70.111
68.84
67.491
66.122
64.792
63.541
62.394
61.371
60.48
59.726
59.108
58.621
58.256
58.008
57.875
57.858
57.956
58.168
58.489
58.915
59.441
60.067
60.797
61.638
62.595
63.671
64.864
66.17
67.581
69.081
70.65
72.268
73.917
75.585
77.27
78.979
80.718
82.498
84.32
86.177
88.065
89.978
91.92
93.895
95.919
98.016
100.216
102.555
105.058
107.73
110.557
113.502
116.514
119.533
122.51
125.408
128.196
130.844
133.323
135.6
137.633
139.374
140.761
141.723
142.204
142.168
141.612
140.558
139.055
137.168
134.955
132.461
129.725
126.778
123.648
120.362
116.953
113.456
109.92
106.411
102.984
99.684
96.531
93.525
90.648
87.864
85.144
82.467
79.816
77.188
74.581
72.002
69.455
66.951
64.488
62.054
59.638
57.234
54.841
52.471
50.141
47.877
45.702
43.637
41.698
39.895
38.232
36.71
35.325
34.069
32.937
31.927
31.037
30.267
29.613
29.07
28.63
28.285
28.023
27.834
27.706
27.631
27.6
27.605
27.64
27.699
27.777
27.869
27.968
28.066
28.155
28.228
28.276
28.291
28.265
28.19
28.059
27.867
27.609
27.281
26.878
26.397
25.833
25.184
24.448
23.62
22.696
21.67
20.539
19.301
17.955
16.499
14.933
13.254
11.465
9.568
7.566
5.457
3.237
0.902
-1.547
-4.101
-6.748
-9.474
-12.272
-15.13
-18.033
-20.961
-23.901
-26.849
-29.811
-32.796
-35.804
-38.824
-41.837
-44.825
-47.78
-50.704
-53.604
-56.479
-59.324
-62.143
-64.952
-67.774
-70.614
-73.449
-76.23
-78.911
-81.46
-83.862
-86.113
-88.204
-90.114
-91.817
-93.292
-94.53
-95.516
-96.226
-96.618
-96.639
-96.27
-95.528
-94.463
-93.125
-91.541
-89.73
-87.703
-85.484
-83.1
-80.577
-77.928
-75.161
-72.292
-69.352
-66.39
-63.461
-60.594
-57.788
-55.021
-52.272
-49.538
-46.818
-44.111
-41.41
-38.707
-36.002
-33.309
-30.645
-28.014
-25.413
-22.827
-20.238
-17.644
-15.051
-12.475
-9.928
-7.415
-4.942
-2.515
-0.146
2.16
4.403
6.591
8.732
10.832
12.889
14.902
16.87
18.794
20.677
22.522
24.331
26.105
27.847
29.559
31.246
32.908
34.544
36.151
37.726
39.267
40.771
42.236
43.659
45.035
46.362
47.638
48.86
50.025
51.13
52.172
53.147
54.051
54.884
55.641
56.319
56.917
57.433
57.864
58.21
58.469
58.64
58.724
58.72
58.628
58.45
58.187
57.841
57.413
56.907
56.325
55.671
54.948
54.161
53.314
52.411
51.458
50.458
49.418
48.342
47.234
46.101
44.948
43.779
42.601
41.417
40.233
39.052
37.879
36.718
35.571
34.442
33.334
32.249
31.19
30.16
29.16
28.191
27.256
26.354
25.486
24.652
23.853
23.087
22.355
21.654
20.985
20.347
19.737
19.154
18.595
18.056
17.535
17.027
16.526
16.027
15.524
15.014
14.492
13.952
13.391
12.805
12.192
11.549
10.873
10.157
9.396
8.584
7.714
6.781
5.778
4.696
3.53
2.275
0.93
-0.509
-2.046
-3.687
-5.442
-7.317
-9.312
-11.425
-13.655
-15.996
-18.44
-20.97
-23.56
-26.183
-28.823
-31.474
-34.137
-36.814
-39.502
-42.2
-44.907
-47.633
-50.391
-53.191
-56.035
-58.929
-61.886
-64.94
-68.143
-71.535
-75.136
-78.942
-82.935
-87.094
-91.393
-95.795
-100.248
-104.678
-109.014
-113.205
-117.21
-120.987
-124.483
-127.619
-130.3
-132.45
-134.024
-134.998
-135.367
-135.129
-134.295
-132.897
-130.998
-128.681
-126.017
-123.055
-119.834
-116.392
-112.788
-109.094
-105.394
-101.748
-98.193
-94.749
-91.423
-88.224
-85.148
-82.179
-79.281
-76.41
-73.54
-70.66
-67.773
-64.878
-61.956
-58.975
-55.91
-52.751
-49.517
-46.26
-43.041
-39.919
-36.952
-34.177
-31.641
-29.393
-27.468
-25.898
-24.697
-23.85
-23.381
-23.361
-23.793
-24.624
-25.691
-26.669
-27.24
-27.168
-26.27
-24.441
-21.753
-18.4
-14.763
-11.505
-9.33
-8.851
-10.419
-14.012
-19.223
-25.405
-31.742
-37.095
-40.101
-39.303
-33.559
-22.36
-5.874
15.239
39.965
66.644
92.881
115.699
131.892
138.553
133.291
113.938
79.723
31.889
-27.532
-95.49
-170.991
-255.904
-348.785
-444.866
-533.72
-599.229
-631.965
-629.945
-598.655
-551.864
-499.497
-446.473
-394.425
-340.607
-284.685
-229.34
-178.091
-135.063
-101.893
-77.827
-61.415
-50.654
-43.944
-39.956
-36.727
-32.431
-26.116
-17.505
-6.981
4.699
16.937
29.125
40.303
49.525
56.271
60.391
62.104
61.853
60.025
56.988
53.201
49.14
45.138
41.404
38.046
35.08
32.508
30.341
28.557
27.111
25.996
25.227
24.8
24.714
24.943
25.446
26.218
27.27
28.591
30.159
31.925
33.833
35.865
38.018
40.273
42.603
44.959
47.275
49.521
51.69
53.766
55.736
57.563
59.191
60.592
61.76
62.695
63.407
63.892
64.136
64.152
63.964
63.614
63.15
62.6
61.971
61.278
60.533
59.757
58.977
58.207
57.441
56.681
55.924
55.171
54.431
53.694
52.945
52.163
51.328
50.426
49.457
48.419
47.312
46.136
44.895
43.597
42.26
40.895
39.513
38.128
36.747
35.386
34.062
32.792
31.594
30.481
29.469
28.569
27.793
27.152
26.652
26.301
26.101
26.056
26.169
26.444
26.881
27.481
28.242
29.164
30.242
31.472
32.848
34.362
36.005
37.766
39.635
41.6
43.647
45.765
47.939
50.154
52.395
54.649
56.899
59.129
61.326
63.474
65.559
67.566
69.483
71.297
72.998
74.575
76.019
77.323
78.48
79.483
80.33
81.016
81.541
81.903
82.102
82.14
82.02
81.747
81.324
80.758
80.056
79.226
78.275
77.214
76.05
74.795
73.458
72.05
70.583
69.066
67.511
65.929
64.331
62.729
61.132
59.552
57.997
56.476
54.998
53.571
52.2
50.894
49.656
48.491
47.404
46.397
45.473
44.634
43.88
43.212
42.629
42.13
41.714
41.379
41.122
40.94
40.831
40.791
40.815
40.9
41.042
41.236
41.476
41.758
42.077
42.427
42.802
43.198
43.609
44.029
44.455
44.882
45.305
45.72
46.124
46.512
46.883
47.232
47.558
47.858
48.13
48.372
48.583
48.761
48.906
49.017
49.093
49.134
49.139
49.109
49.043
48.941
48.805
48.635
48.431
48.195
47.93
47.635
47.314
46.969
46.6
46.211
45.804
45.381
44.943
44.492
44.032
43.563
43.087
42.607
42.124
41.64
41.155
40.673
40.193
39.717
39.246
38.78
38.322
37.872
37.43
36.998
36.576
36.164
35.763
35.372
34.991
34.62
34.257
33.901
33.551
33.205
32.862
32.519
32.176
31.829
31.478
31.119
30.752
30.374
29.982
29.575
29.152
28.709
28.246
27.761
27.252
26.717
26.156
25.568
24.95
24.301
23.62
22.906
22.158
21.375
20.556
19.701
18.81
17.883
16.92
15.922
14.89
13.825
12.728
11.6
10.443
9.257
8.044
6.806
5.543
4.258
2.951
1.623
0.277
-1.088
-2.471
-3.87
-5.285
-6.715
-8.159
-9.616
-11.086
-12.568
-14.06
-15.561
-17.07
-18.586
-20.108
-21.635
-23.166
-24.701
-26.238
-27.776
-29.316
-30.856
-32.395
-33.933
-35.468
-36.998
-38.523
-40.04
-41.547
-43.041
-44.519
-45.976
-47.41
-48.815
-50.188
-51.523
-52.816
-54.061
-55.253
-56.387
-57.457
-58.458
-59.385
-60.231
-60.992
-61.661
-62.235
-62.706
-63.07
-63.322
-63.457
-63.469
-63.355
-63.108
-62.725
-62.201
-61.532
-60.716
-59.75
-58.634
-57.366
-55.949
-54.385
-52.679
-50.834
-48.855
-46.749
-44.521
-42.178
-39.727
-37.175
-34.528
-31.797
-28.992
-26.127
-23.213
-20.265
-17.298
-14.326
-11.367
-8.436
-5.548
-2.715
0.05
2.733
5.314
7.773
10.092
12.259
14.265
16.099
17.757
19.236
20.544
21.702
22.726
23.627
24.408
25.061
25.581
25.966
26.215
26.324
26.281
26.068
25.677
25.104
24.341
23.375
22.171
20.675
18.849
16.672
14.147
11.295
8.138
4.711
1.068
-2.725
-6.577
-10.403
-14.141
-17.74
-21.15
-24.318
-27.173
-29.631
-31.635
-33.154
-34.176
-34.716
-34.794
-34.461
-33.802
-32.929
-31.971
-31.041
-30.203
-29.503
-28.974
-28.636
-28.511
-28.614
-28.912
-29.342
-29.835
-30.306
-30.69
-30.868
-30.62
-29.742
-28.102
-25.717
-22.787
-19.54
-16.123
-12.757
-9.832
-7.692
-6.501
-5.978
-5.414
-4.137
-1.599
2.684
9.265
18.784
30.495
41.876
50.371
53.142
50.009
44.048
35.016
21.553
-0.447
-40.355
-101.648
-185.547
-291.545
-408.223
-524.015
-624.361
-690.263
-715.422
-700.655
-654.416
-595.267
-534.501
-477.1
-424.202
-370.702
-315.324
-261.085
-211.395
-170.549
-140.155
-118.869
-104.803
-95.796
-89.989
-85.835
-81.714
-76.256
-68.829
-59.529
-48.899
-37.672
-26.564
-16.313
-7.714
-1.493
2.026
2.952
1.629
-1.456
-5.809
-10.962
-16.402
-21.602
-26.189
-29.978
-32.894
-34.962
-36.227
-36.712
-36.477
-35.62
-34.229
-32.397
-30.213
-27.75
-25.101
-22.384
-19.713
-17.202
-14.96
-13.05
-11.509
-10.356
-9.581
-9.164
-9.078
-9.279
-9.713
-10.329
-11.071
-11.891
-12.74
-13.565
-14.309
-14.919
-15.34
-15.538
-15.491
-15.182
-14.605
-13.758
-12.642
-11.267
-9.645
-7.787
-5.703
-3.399
-0.884
1.833
4.74
7.822
11.066
14.459
17.99
21.647
25.418
29.289
33.25
37.289
41.395
45.556
49.756
53.982
58.218
62.448
66.658
70.834
74.96
79.023
83.012
86.912
90.715
94.409
97.985
101.433
104.745
107.914
110.931
113.792
116.49
119.02
121.378
123.56
125.564
127.387
129.028
130.486
131.761
132.854
133.764
134.494
135.047
135.423
135.628
135.664
135.536
135.25
134.809
134.22
133.488
132.62
131.622
130.499
129.258
127.905
126.448
124.891
123.243
121.509
119.697
117.813
115.864
113.858
111.8
109.697
107.555
105.382
103.183
100.965
98.734
96.495
94.256
92.022
89.798
87.59
85.403
83.242
81.111
79.015
76.958
74.943
72.973
71.053
69.186
67.374
65.621
63.928
62.299
60.735
59.238
57.809
56.451
55.164
53.949
52.808
51.742
50.751
49.837
49
48.239
47.557
46.952
46.424
45.974
45.6
45.303
45.081
44.934
44.861
44.861
44.934
45.078
45.293
45.576
45.926
46.341
46.819
47.358
47.956
48.61
49.318
50.078
50.885
51.738
52.634
53.568
54.538
55.54
56.569
57.622
58.695
59.784
60.883
61.991
63.101
64.21
65.314
66.409
67.489
68.551
69.59
70.602
71.583
72.528
73.435
74.299
75.117
75.887
76.605
77.269
77.877
78.426
78.916
79.345
79.712
80.016
80.257
80.435
80.55
80.604
80.597
80.53
80.405
80.224
79.989
79.7
79.362
78.975
78.544
78.069
77.555
77.005
76.421
75.808
75.168
74.504
73.821
73.119
72.404
71.675
70.937
70.192
69.44
68.683
67.924
67.162
66.398
65.632
64.865
64.096
63.323
62.547
61.765
60.977
60.18
59.373
58.554
57.721
56.871
56.003
55.114
54.201
53.262
52.293
51.292
50.255
49.181
48.065
46.905
45.7
44.446
43.143
41.788
40.381
38.921
37.408
35.842
34.225
32.556
30.839
29.074
27.265
25.414
23.525
21.602
19.647
17.666
15.662
13.641
11.606
9.563
7.517
5.473
3.437
1.415
-0.588
-2.567
-4.514
-6.425
-8.294
-10.114
-11.88
-13.589
-15.235
-16.814
-18.323
-19.759
-21.122
-22.41
-23.622
-24.759
-25.821
-26.807
-27.72
-28.558
-29.323
-30.014
-30.634
-31.183
-31.666
-32.085
-32.443
-32.744
-32.992
-33.191
-33.346
-33.459
-33.531
-33.564
-33.563
-33.533
-33.483
-33.418
-33.34
-33.25
-33.146
-33.021
-32.869
-32.673
-32.412
-32.068
-31.626
-31.074
-30.409
-29.621
-28.701
-27.642
-26.438
-25.084
-23.585
-21.947
-20.185
-18.33
-16.425
-14.524
-12.697
-11.008
-9.517
-8.284
-7.355
-6.778
-6.594
-6.833
-7.516
-8.665
-10.286
-12.372
-14.895
-17.781
-20.929
-24.228
-27.546
-30.758
-33.724
-36.281
-38.269
-39.525
-39.906
-39.3
-37.572
-34.545
-30.095
-24.196
-16.978
-8.778
0.027
9.111
18.087
26.501
33.959
40.231
45.516
50.47
55.855
62.308
70.322
80.28
92.343
106.227
120.721
133.794
143.098
146.125
140.54
124.18
95.155
53.156
-0.053
-62.041
-130.404
-204.541
-284.945
-369.01
-450.222
-517.835
-561.137
-575.385
-562.647
-531.418
-490.885
-446.727
-401.166
-353.171
-302.513
-251.217
-202.314
-159.419
-124.699
-98.22
-79.118
-65.931
-57.114
-51.358
-47.18
-43.066
-37.802
-30.811
-22.15
-12.216
-1.563
9.234
19.544
28.656
35.893
40.942
43.873
44.918
44.435
42.801
40.353
37.504
34.707
32.263
30.348
29.045
28.333
28.186
28.592
29.491
30.802
32.452
34.361
36.468
38.727
41.07
43.423
45.71
47.845
49.75
51.352
52.597
53.456
53.924
54.008
53.728
53.11
52.187
51.006
49.609
48.037
46.329
44.516
42.639
40.74
38.859
37.04
35.313
33.698
32.209
30.856
29.642
28.57
27.636
26.832
26.151
25.59
25.146
24.818
24.605
24.5
24.498
24.593
24.78
25.055
25.414
25.852
26.364
26.946
27.596
28.31
29.084
29.912
30.79
31.71
32.665
33.65
34.658
35.683
36.719
37.759
38.8
39.838
40.867
41.886
42.889
43.873
44.836
45.774
46.683
47.56
48.403
49.207
49.968
50.685
51.353
51.969
52.53
53.032
53.473
53.849
54.158
54.396
54.561
54.651
54.663
54.595
54.446
54.213
53.894
53.49
52.997
52.414
51.741
50.974
50.113
49.156
48.101
46.948
45.695
44.343
42.891
41.339
39.689
37.941
36.098
34.163
32.137
30.025
27.831
25.558
23.211
20.797
18.32
15.787
13.203
10.576
7.911
5.217
2.499
-0.236
-2.979
-5.723
-8.462
-11.186
-13.889
-16.561
-19.194
-21.781
-24.311
-26.777
-29.17
-31.483
-33.706
-35.833
-37.856
-39.768
-41.564
-43.237
-44.782
-46.195
-47.472
-48.61
-49.607
-50.46
-51.17
-51.735
-52.157
-52.436
-52.573
-52.572
-52.435
-52.166
-51.767
-51.244
-50.603
-49.848
-48.986
-48.025
-46.973
-45.837
-44.627
-43.352
-42.022
-40.646
-39.236
-37.802
-36.354
-34.903
-33.46
-32.035
-30.637
-29.278
-27.966
-26.711
-25.521
-24.404
-23.368
-22.42
-21.566
-20.811
-20.161
-19.621
-19.195
-18.885
-18.695
-18.626
-18.681
-18.859
-19.16
-19.584
-20.127
-20.788
-21.562
-22.446
-23.434
-24.522
-25.702
-26.969
-28.316
-29.734
-31.216
-32.754
-34.338
-35.96
-37.611
-39.282
-40.962
-42.643
-44.315
-45.968
-47.595
-49.186
-50.732
-52.223
-53.652
-55.01
-56.289
-57.48
-58.576
-59.57
-60.455
-61.227
-61.88
-62.41
-62.812
-63.083
-63.22
-63.22
-63.081
-62.802
-62.382
-61.819
-61.115
-60.271
-59.289
-58.172
-56.924
-55.55
-54.058
-52.452
-50.741
-48.932
-47.032
-45.052
-43
-40.886
-38.719
-36.511
-34.273
-32.017
-29.758
-27.51
-25.285
-23.098
-20.961
-18.889
-16.897
-14.998
-13.204
-11.529
-9.988
-8.599
-7.384
-6.358
-5.533
-4.915
-4.509
-4.313
-4.325
-4.534
-4.92
-5.467
-6.159
-6.986
-7.949
-9.041
-10.251
-11.564
-12.957
-14.417
-15.946
-17.548
-19.228
-21.005
-22.899
-24.949
-27.22
-29.76
-32.604
-35.769
-39.245
-43.02
-47.081
-51.41
-55.99
-60.786
-65.737
-70.781
-75.861
-80.9
-85.826
-90.542
-94.906
-98.802
-102.132
-104.808
-106.794
-108.07
-108.634
-108.513
-107.745
-106.361
-104.431
-102.049
-99.246
-96.03
-92.329
-88.008
-83.002
-77.299
-70.922
-63.924
-56.469
-48.816
-41.339
-34.602
-29.151
-25.42
-23.646
-23.826
-25.635
-28.527
-31.861
-34.688
-35.855
-34.216
-28.811
-19.1
-5.193
12.364
32.831
54.918
76.675
95.803
109.752
115.929
112.499
98.108
71.453
33.058
-15.505
-73.254
-137.446
-206.414
-278.891
-348.611
-410.103
-457.745
-485.802
-496.156
-491.497
-474.298
-448.776
-415.368
-375.075
-330.61
-283.841
-237.874
-195.41
-158.078
-127.273
-103.115
-84.94
-71.874
-62.724
-56.508
-52.316
-48.846
-44.94
-40.031
-33.994
-27.11
-19.838
-12.502
-5.441
0.767
5.528
8.558
9.874
9.71
8.421
6.325
3.705
0.938
-1.548
-3.48
-4.727
-5.253
-5.123
-4.389
-3.073
-1.245
0.994
3.557
6.348
9.3
12.367
15.472
18.524
21.432
24.099
26.463
28.498
30.182
31.51
32.494
33.149
33.504
33.603
33.483
33.185
32.744
32.19
31.564
30.906
30.258
29.664
29.153
28.744
28.452
28.286
28.249
28.343
28.563
28.901
29.35
29.908
30.569
31.331
32.192
33.145
34.184
35.301
36.492
37.752
39.076
40.46
41.899
43.391
44.931
46.517
48.145
49.811
51.508
53.231
54.975
56.734
58.502
60.275
62.047
63.815
65.574
67.321
69.052
70.766
72.457
74.123
75.762
77.37
78.944
80.481
81.979
83.435
84.844
86.205
87.512
88.763
89.955
91.082
92.142
93.13
94.042
94.874
95.622
96.283
96.852
97.325
97.7
97.971
98.135
98.19
98.132
97.958
97.665
97.251
96.715
96.053
95.266
94.353
93.313
92.147
90.857
89.443
87.909
86.258
84.495
82.623
80.648
78.578
76.418
74.177
71.862
69.483
67.049
64.571
62.057
59.518
56.967
54.412
51.866
49.339
46.842
44.386
41.981
39.638
37.366
35.175
33.074
31.07
29.172
27.387
25.721
24.18
22.77
21.493
20.355
19.357
18.502
17.79
17.221
16.795
16.509
16.363
16.351
16.472
16.72
17.09
17.576
18.172
18.872
19.669
20.555
21.524
22.566
23.677
24.846
26.069
27.337
28.644
29.984
31.349
32.734
34.133
35.54
36.952
38.362
39.767
41.164
42.547
43.915
45.265
46.594
47.901
49.183
50.44
51.67
52.873
54.048
55.196
56.316
57.409
58.476
59.516
60.531
61.521
62.486
63.427
64.343
65.235
66.102
66.944
67.76
68.55
69.312
70.045
70.748
71.421
72.06
72.666
73.237
73.77
74.266
74.722
75.138
75.512
75.844
76.134
76.381
76.586
76.747
76.867
76.945
76.982
76.98
76.941
76.867
76.76
76.624
76.462
76.28
76.08
75.869
75.652
75.435
75.223
75.022
74.84
74.683
74.558
74.47
74.428
74.437
74.504
74.635
74.837
75.113
75.471
75.913
76.443
77.066
77.783
78.596
79.507
80.518
81.627
82.834
84.138
85.536
87.024
88.598
90.253
91.981
93.777
95.632
97.536
99.482
101.46
103.458
105.468
107.476
109.473
111.446
113.384
115.275
117.106
118.864
120.537
122.114
123.582
124.932
126.153
127.237
128.178
128.969
129.604
130.08
130.392
130.538
130.516
130.325
129.967
129.445
128.766
127.935
126.961
125.853
124.617
123.267
121.809
120.248
118.592
116.841
115.002
113.09
111.118
109.1
107.06
105.011
102.968
100.955
98.991
97.092
95.273
93.538
91.889
90.344
88.922
87.647
86.531
85.564
84.728
84.007
83.385
82.843
82.352
81.847
81.261
80.536
79.639
78.563
77.289
75.824
74.196
72.481
70.85
69.508
68.606
68.251
68.523
69.292
70.352
71.505
72.337
72.448
71.547
69.35
65.802
61.358
56.697
52.474
49.556
48.691
50.632
56.263
66.02
79.651
96.411
115.416
135.679
156.143
175.234
190.809
200.911
203.986
199.076
185.387
161.992
128.401
85.15
33.94
-22.868
-82.752
-143.34
-201.649
-254.137
-297.616
-329.33
-348.676
-356.114
-350.859
-333.379
-303.667
-262.299
-214.872
-166.291
-121.59
-86.116
-58.899
-38.656
-23.834
-11.106
-1.393
4.797
8.22
8.842
8.99
10.547
13.657
18.509
24.563
30.97
37.425
43.414
48.098
51.109
52.373
51.957
50.214
47.493
44.059
40.291
36.621
33.319
30.547
28.395
26.87
25.994
25.777
26.166
27.065
28.364
29.96
31.737
33.572
35.337
36.876
38.042
38.727
38.821
38.21
36.776
34.369
30.857
26.181
20.306
13.23
4.998
-4.338
-14.677
-25.857
-37.726
-50.129
-62.905
-75.921
-89.022
-102.012
-114.705
-126.898
-138.388
-149.03
-158.697
-167.278
-174.712
-180.962
-186.035
-190.001
-192.927
-194.873
-195.921
-196.148
-195.651
-194.572
-193.035
-191.159
-189.074
-186.876
-184.655
-182.499
-180.459
-178.561
-176.817
-175.203
-173.693
-172.273
-170.909
-169.564
-168.195
-166.733
-165.13
-163.355
-161.371
-159.155
-156.693
-153.967
-150.978
-147.746
-144.289
-140.633
-136.809
-132.84
-128.759
-124.604
-120.414
-116.232
-112.096
-108.029
-104.057
-100.199
-96.473
-92.894
-89.472
-86.21
-83.114
-80.189
-77.442
-74.879
-72.502
-70.314
-68.312
-66.497
-64.867
-63.422
-62.161
-61.084
-60.188
-59.473
-58.936
-58.576
-58.39
-58.372
-58.514
-58.809
-59.248
-59.82
-60.517
-61.326
-62.237
-63.239
-64.32
-65.471
-66.678
-67.93
-69.214
-70.517
-71.827
-73.131
-74.415
-75.669
-76.879
-78.034
-79.123
-80.135
-81.06
-81.888
-82.609
-83.215
-83.697
-84.049
-84.263
-84.334
-84.257
-84.029
-83.646
-83.108
-82.413
-81.561
-80.553
-79.39
-78.075
-76.609
-74.998
-73.245
-71.354
-69.333
-67.186
-64.922
-62.546
-60.067
-57.493
-54.832
-52.093
-49.285
-46.415
-43.494
-40.53
-37.532
-34.509
-31.471
-28.427
-25.385
-22.353
-19.341
-16.355
-13.403
-10.492
-7.629
-4.819
-2.07
0.615
3.229
5.769
8.231
10.61
12.905
15.113
17.231
19.259
21.196
23.042
24.795
26.456
28.026
29.506
30.895
32.196
33.409
34.538
35.582
36.546
37.43
38.238
38.972
39.634
40.227
40.755
41.218
41.621
41.965
42.253
42.488
42.673
42.81
42.901
42.95
42.958
42.927
42.859
42.756
42.62
42.451
42.252
42.023
41.767
41.484
41.177
40.846
40.492
40.118
39.724
39.311
38.882
38.436
37.977
37.504
37.02
36.526
36.023
35.514
35
34.481
33.961
33.439
32.918
32.398
31.88
31.366
30.856
30.353
29.855
29.366
28.885
28.413
27.951
27.499
27.058
26.628
26.208
25.799
25.399
25.009
24.628
24.255
23.889
23.528
23.171
22.816
22.462
22.107
21.748
21.383
21.01
20.628
20.234
19.826
19.402
18.962
18.503
18.026
17.528
17.01
16.471
15.911
15.33
14.729
14.109
13.471
12.817
12.148
11.468
10.779
10.083
9.384
8.686
7.992
7.307
6.634
5.978
5.345
4.739
4.165
3.629
3.135
2.689
2.296
1.959
1.684
1.475
1.334
1.266
1.272
1.355
1.515
1.754
2.072
2.468
2.941
3.488
4.108
4.796
5.548
6.361
7.227
8.142
9.099
10.09
11.107
12.142
13.187
14.231
15.267
16.283
17.27
18.218
19.115
19.953
20.72
21.406
22.001
22.495
22.878
23.143
23.28
23.282
23.143
22.856
22.416
21.818
21.059
20.135
19.044
17.786
16.359
14.765
13.005
11.083
9.002
6.766
4.382
1.856
-0.807
-3.599
-6.511
-9.534
-12.66
-15.878
-19.177
-22.543
-25.964
-29.424
-32.91
-36.407
-39.9
-43.372
-46.809
-50.193
-53.511
-56.749
-59.895
-62.935
-65.856
-68.646
-71.296
-73.799
-76.149
-78.34
-80.363
-82.209
-83.874
-85.364
-86.678
-87.82
-88.786
-89.564
-90.149
-90.541
-90.74
-90.746
-90.556
-90.166
-89.584
-88.834
-87.949
-86.969
-85.921
-84.817
-83.669
-82.481
-81.282
-80.126
-79.066
-78.144
-77.389
-76.803
-76.415
-76.299
-76.436
-76.729
-76.973
-76.831
-76.123
-74.876
-73.097
-70.784
-67.998
-64.818
-61.685
-59.48
-58.742
-59.559
-61.818
-65.167
-69.3
-74.009
-78.423
-80.915
-80.186
-75.503
-66.738
-54.426
-39.099
-21.311
-2.638
14.25
26.612
32.046
28.722
15.412
-9.068
-45.695
-93.297
-148.428
-207.63
-268.328
-330.47
-395.484
-461.908
-523.534
-570.579
-594.402
-590.295
-560.399
-513.308
-455.93
-395.609
-339.311
-289.052
-249.361
-221.972
-202.861
-189.673
-178.174
-165.985
-155.437
-147.502
-142.472
-139.318
-135.289
-129.158
-120.927
-111.114
-100.823
-90.685
-81.159
-73.082
-66.929
-62.854
-60.837
-60.494
-61.438
-63.4
-65.979
-68.704
-71.241
-73.333
-74.856
-75.831
-76.257
-76.129
-75.492
-74.397
-72.905
-71.091
-69.005
-66.692
-64.206
-61.603
-58.964
-56.374
-53.913
-51.66
-49.668
-47.961
-46.562
-45.469
-44.668
-44.143
-43.861
-43.778
-43.859
-44.067
-44.365
-44.724
-45.106
-45.471
-45.779
-45.991
-46.076
-46.018
-45.8
-45.413
-44.854
-44.12
-43.217
-42.153
-40.935
-39.568
-38.057
-36.404
-34.614
-32.695
-30.655
-28.501
-26.241
-23.882
-21.432
-18.898
-16.288
-13.609
-10.867
-8.069
-5.221
-2.332
0.589
3.534
6.493
9.458
12.42
15.368
18.295
21.193
24.053
26.868
29.633
32.339
34.981
37.552
40.049
42.464
44.794
47.034
49.179
51.225
53.169
55.008
56.737
58.355
59.86
61.25
62.523
63.679
64.716
65.634
66.434
67.115
67.678
68.124
68.454
68.67
68.775
68.771
68.661
68.449
68.138
67.732
67.236
66.654
65.99
65.249
64.437
63.56
62.621
61.629
60.589
59.508
58.391
57.247
56.08
54.899
53.709
52.517
51.33
50.154
48.995
47.861
46.756
45.688
44.662
43.682
42.756
41.886
41.077
40.334
39.658
39.054
38.523
38.067
37.687
37.384
37.16
37.013
36.945
36.953
37.036
37.194
37.423
37.723
38.089
38.52
39.013
39.564
40.17
40.829
41.536
42.287
43.08
43.911
44.775
45.668
46.586
47.526
48.484
49.455
50.437
51.425
52.418
53.412
54.405
55.393
56.376
57.35
58.315
59.269
60.21
61.137
62.05
62.948
63.83
64.695
65.544
66.377
67.191
67.988
68.767
69.528
70.269
70.991
71.694
72.376
73.039
73.682
74.304
74.907
75.489
76.05
76.591
77.112
77.611
78.088
78.544
78.977
79.387
79.772
80.133
80.468
80.778
81.06
81.314
81.54
81.736
81.902
82.037
82.14
82.212
82.25
82.256
82.229
82.169
82.077
81.953
81.798
81.613
81.397
81.153
80.88
80.58
80.254
79.902
79.526
79.128
78.708
78.269
77.814
77.343
76.86
76.368
75.868
75.364
74.858
74.353
73.852
73.358
72.874
72.404
71.951
71.522
71.12
70.75
70.415
70.121
69.87
69.665
69.508
69.397
69.332
69.315
69.346
69.427
69.556
69.734
69.96
70.235
70.554
70.915
71.311
71.734
72.179
72.642
73.121
73.621
74.14
74.678
75.229
75.787
76.343
76.885
77.393
77.843
78.215
78.488
78.647
78.677
78.556
78.271
77.802
77.124
76.213
75.055
73.642
71.98
70.085
67.965
65.635
63.128
60.489
57.775
55.046
52.364
49.781
47.356
45.191
43.33
41.757
40.383
38.973
37.278
35.129
32.308
28.563
23.886
18.434
12.581
7.142
2.839
0.148
-0.319
1.862
6.434
12.761
19.627
24.963
26.89
23.8
13.808
-4.467
-31.302
-66.279
-107.961
-153.631
-200.411
-245.241
-284.461
-314.79
-333.967
-340.44
-333.571
-314.017
-283.209
-243.357
-197.648
-149.469
-101.729
-57.071
-17.951
13.898
37.648
53.335
61.957
65.011
63.894
60.055
55.256
51.111
48.646
48.33
50.05
53.346
57.83
63.096
68.499
73.363
77.305
80.236
82.316
83.861
85.115
86.262
87.556
89.275
91.58
94.519
98.038
102.001
106.292
110.826
115.494
120.169
124.737
129.09
133.152
136.888
140.268
143.268
145.875
148.082
149.891
151.325
152.408
153.168
153.635
153.838
153.812
153.597
153.239
152.788
152.281
151.748
151.209
150.683
150.183
149.72
149.3
148.921
148.581
148.282
148.026
147.816
147.651
147.529
147.446
147.397
147.377
147.384
147.414
147.462
147.523
147.593
147.668
147.744
147.817
147.88
147.926
147.947
147.937
147.887
147.792
147.643
147.432
147.152
146.798
146.366
145.855
145.263
144.59
143.835
142.998
142.078
141.081
140.003
138.844
137.6
136.262
134.832
133.319
131.735
130.09
128.396
126.654
124.875
123.078
121.275
119.479
117.697
115.925
114.168
112.448
110.788
109.219
107.75
106.355
105.007
103.677
102.347
101.017
99.664
98.217
96.618
94.814
92.778
90.557
88.153
85.51
82.618
79.482
76.226
73.144
70.427
68.114
66.241
64.778
63.697
63.097
62.794
62.286
61.282
59.61
57.296
54.733
52.195
49.724
47.689
46.744
47.428
50.411
55.998
63.932
74.113
86.497
100.755
116.311
132.095
146.271
157.147
163.316
162.99
154.417
135.888
105.601
63.951
13.832
-42.52
-102.733
-166.834
-237.878
-313.913
-389.124
-453.724
-494.031
-503.421
-481.933
-434.145
-370.33
-298.744
-226.287
-161.349
-109.239
-73.077
-52.442
-40.985
-32.452
-23.646
-14.39
-7.801
-6.059
-8.218
-11.735
-13.818
-13.126
-9.873
-4.835
1.122
7.42
13.35
18.003
20.902
21.955
21.307
19.359
16.484
12.992
9.354
6.071
3.438
1.593
0.547
0.203
0.505
1.414
2.837
4.661
6.781
9.104
11.572
14.137
16.716
19.206
21.504
23.527
25.23
26.594
27.605
28.261
28.567
28.543
28.228
27.66
26.875
25.911
24.8
23.584
22.309
21.027
19.791
18.641
17.606
16.709
15.967
15.395
15.001
14.79
14.76
14.911
15.247
15.772
16.489
17.401
18.504
19.796
21.273
22.933
24.772
26.786
28.97
31.319
33.829
36.493
39.306
42.26
45.343
48.545
51.851
55.249
58.723
62.258
65.84
69.45
73.074
76.696
80.3
83.87
87.391
90.847
94.222
97.502
100.672
103.718
106.627
109.387
111.985
114.412
116.656
118.708
120.562
122.209
123.644
124.861
125.857
126.629
127.176
127.496
127.591
127.462
127.112
126.544
125.763
124.774
123.584
122.2
120.628
118.877
116.955
114.872
112.637
110.259
107.75
105.118
102.376
99.533
96.602
93.591
90.512
87.377
84.194
80.974
77.728
74.464
71.192
67.921
64.659
61.414
58.193
55.004
51.853
48.745
45.687
42.683
39.737
36.853
34.034
31.284
28.604
25.997
23.464
21.005
18.622
16.315
14.084
11.927
9.843
7.833
5.893
4.023
2.22
0.481
-1.194
-2.809
-4.367
-5.869
-7.319
-8.72
-10.073
-11.384
-12.653
-13.884
-15.081
-16.245
-17.38
-18.488
-19.572
-20.634
-21.677
-22.703
-23.715
-24.713
-25.701
-26.68
-27.651
-28.615
-29.574
-30.528
-31.478
-32.424
-33.367
-34.306
-35.241
-36.171
-37.097
-38.017
-38.932
-39.839
-40.737
-41.626
-42.504
-43.369
-44.22
-45.053
-45.869
-46.663
-47.435
-48.182
-48.902
-49.594
-50.254
-50.882
-51.475
-52.031
-52.55
-53.029
-53.467
-53.864
-54.22
-54.533
-54.805
-55.035
-55.224
-55.374
-55.485
-55.558
-55.597
-55.602
-55.575
-55.52
-55.439
-55.334
-55.211
-55.071
-54.919
-54.76
-54.598
-54.436
-54.28
-54.134
-54.003
-53.892
-53.804
-53.746
-53.721
-53.734
-53.788
-53.889
-54.04
-54.243
-54.501
-54.818
-55.195
-55.634
-56.135
-56.701
-57.332
-58.027
-58.788
-59.614
-60.504
-61.458
-62.474
-63.549
-64.683
-65.872
-67.114
-68.405
-69.742
-71.121
-72.539
-73.991
-75.472
-76.979
-78.506
-80.05
-81.604
-83.165
-84.727
-86.286
-87.838
-89.378
-90.903
-92.409
-93.892
-95.35
-96.779
-98.177
-99.54
-100.866
-102.153
-103.398
-104.599
-105.754
-106.861
-107.92
-108.929
-109.886
-110.791
-111.643
-112.443
-113.188
-113.88
-114.518
-115.103
-115.636
-116.116
-116.545
-116.925
-117.256
-117.539
-117.776
-117.968
-118.116
-118.222
-118.285
-118.308
-118.292
-118.237
-118.145
-118.017
-117.855
-117.66
-117.434
-117.178
-116.894
-116.583
-116.247
-115.888
-115.507
-115.107
-114.688
-114.253
-113.803
-113.341
-112.867
-112.383
-111.89
-111.39
-110.882
-110.369
-109.85
-109.327
-108.799
-108.267
-107.732
-107.193
-106.652
-106.108
-105.561
-105.012
-104.459
-103.903
-103.343
-102.78
-102.211
-101.638
-101.06
-100.475
-99.884
-99.286
-98.68
-98.065
-97.442
-96.81
-96.167
-95.514
-94.85
-94.176
-93.491
-92.795
-92.09
-91.376
-90.654
-89.924
-89.189
-88.449
-87.707
-86.965
-86.223
-85.485
-84.754
-84.03
-83.317
-82.617
-81.933
-81.266
-80.62
-79.995
-79.395
-78.822
-78.276
-77.759
-77.273
-76.818
-76.396
-76.007
-75.65
-75.327
-75.036
-74.777
-74.55
-74.352
-74.182
-74.039
-73.92
-73.821
-73.74
-73.673
-73.616
-73.565
-73.514
-73.458
-73.393
-73.314
-73.214
-73.088
-72.932
-72.738
-72.503
-72.22
-71.884
-71.49
-71.033
-70.51
-69.916
-69.249
-68.505
-67.682
-66.779
-65.794
-64.727
-63.576
-62.342
-61.025
-59.626
-58.146
-56.587
-54.953
-53.247
-51.473
-49.637
-47.744
-45.801
-43.814
-41.79
-39.737
-37.661
-35.572
-33.478
-31.388
-29.312
-27.26
-25.241
-23.265
-21.343
-19.484
-17.697
-15.99
-14.37
-12.845
-11.42
-10.099
-8.889
-7.791
-6.81
-5.949
-5.212
-4.602
-4.117
-3.761
-3.531
-3.425
-3.44
-3.57
-3.807
-4.14
-4.561
-5.062
-5.637
-6.281
-6.987
-7.743
-8.537
-9.357
-10.182
-10.991
-11.756
-12.45
-13.053
-13.557
-13.959
-14.263
-14.47
-14.582
-14.596
-14.504
-14.3
-13.978
-13.536
-12.979
-12.333
-11.64
-10.954
-10.345
-9.858
-9.523
-9.345
-9.304
-9.383
-9.573
-9.87
-10.284
-10.831
-11.494
-12.27
-13.195
-14.195
-15.123
-15.754
-15.706
-14.675
-12.585
-9.376
-4.992
0.384
6.495
12.86
18.531
22.722
25.153
25.68
24.37
21.66
17.988
14.279
12.301
13.68
19.425
30.094
45.628
65.419
88.671
113.562
137.08
156.037
167.267
168.062
156.381
130.321
89.619
36.716
-25.465
-93.535
-166.877
-248.549
-337.089
-426.642
-505.05
-555.463
-570.451
-550.815
-504.604
-445.088
-378.079
-306.266
-233.462
-164.273
-107.911
-71.477
-54.396
-49.749
-48.632
-45.078
-38.171
-31.423
-27.119
-24.595
-22.163
-17.378
-9.309
1.111
12.721
24.451
35.236
44.183
50.807
54.88
56.507
56.135
54.196
51.059
47.202
43.146
39.24
35.744
32.8
30.4
28.552
27.27
26.51
26.221
26.352
26.846
27.655
28.744
30.054
31.514
33.055
34.595
36.058
37.368
38.448
39.245
39.729
39.888
39.73
39.266
38.516
37.513
36.296
34.906
33.382
31.761
30.074
28.361
26.661
25.013
23.46
22.03
20.744
19.618
18.66
17.877
17.274
16.848
16.593
16.507
16.588
16.835
17.252
17.837
18.588
19.504
20.581
21.817
23.212
24.764
26.469
28.327
30.335
32.492
34.797
37.246
39.834
42.557
45.406
48.374
51.455
54.639
57.917
61.279
64.716
68.219
71.777
75.382
79.023
82.689
86.369
90.053
93.729
97.386
101.012
104.597
108.127
111.592
114.979
118.277
121.475
124.561
127.525
130.356
133.044
135.581
137.957
140.164
142.194
144.042
145.7
147.166
148.433
149.501
150.366
151.027
151.484
151.739
151.791
151.644
151.301
150.766
150.044
149.14
148.061
146.814
145.406
143.847
142.145
140.311
138.353
136.282
134.109
131.845
129.501
127.089
124.619
122.103
119.553
116.979
114.393
111.806
109.227
106.667
104.136
101.644
99.198
96.808
94.482
92.226
90.048
87.953
85.949
84.039
82.229
80.522
78.923
77.435
76.06
74.802
73.662
72.641
71.742
70.966
70.312
69.782
69.376
69.093
68.934
68.896
68.98
69.183
69.503
69.939
70.486
71.143
71.904
72.765
73.722
74.769
75.9
77.108
78.387
79.73
81.128
82.575
84.06
85.575
87.111
88.657
90.202
91.736
93.248
94.726
96.157
97.529
98.83
100.046
101.165
102.173
103.057
103.802
104.397
104.827
105.081
105.147
105.013
104.669
104.106
103.314
102.287
101.018
99.502
97.734
95.712
93.433
90.898
88.106
85.06
81.763
78.221
74.438
70.422
66.181
61.725
57.064
52.21
47.176
41.976
36.625
31.139
25.534
19.83
14.043
8.193
2.299
-3.619
-9.542
-15.45
-21.324
-27.146
-32.896
-38.559
-44.115
-49.551
-54.849
-59.995
-64.977
-69.782
-74.398
-78.815
-83.025
-87.02
-90.793
-94.338
-97.652
-100.73
-103.57
-106.172
-108.536
-110.661
-112.552
-114.21
-115.641
-116.85
-117.843
-118.627
-119.211
-119.603
-119.812
-119.848
-119.721
-119.44
-119.017
-118.46
-117.782
-116.991
-116.099
-115.114
-114.047
-112.907
-111.702
-110.442
-109.134
-107.786
-106.405
-104.999
-103.574
-102.137
-100.692
-99.247
-97.805
-96.371
-94.949
-93.544
-92.158
-90.794
-89.454
-88.139
-86.853
-85.595
-84.366
-83.166
-81.997
-80.857
-79.746
-78.664
-77.609
-76.583
-75.582
-74.607
-73.657
-72.731
-71.827
-70.946
-70.085
-69.243
-68.421
-67.616
-66.828
-66.055
-65.297
-64.551
-63.818
-63.095
-62.381
-61.675
-60.976
-60.282
-59.592
-58.905
-58.219
-57.534
-56.848
-56.161
-55.472
-54.779
-54.081
-53.38
-52.672
-51.959
-51.239
-50.512
-49.777
-49.035
-48.285
-47.528
-46.762
-45.989
-45.208
-44.421
-43.627
-42.827
-42.023
-41.214
-40.402
-39.589
-38.775
-37.963
-37.153
-36.348
-35.551
-34.762
-33.984
-33.22
-32.471
-31.741
-31.032
-30.346
-29.685
-29.053
-28.452
-27.885
-27.354
-26.862
-26.41
-26.001
-25.637
-25.321
-25.053
-24.837
-24.672
-24.561
-24.505
-24.505
-24.561
-24.675
-24.847
-25.076
-25.362
-25.706
-26.105
-26.56
-27.068
-27.629
-28.24
-28.898
-29.601
-30.347
-31.13
-31.948
-32.796
-33.669
-34.563
-35.473
-36.392
-37.316
-38.239
-39.156
-40.059
-40.942
-41.8
-42.624
-43.41
-44.149
-44.835
-45.462
-46.021
-46.509
-46.917
-47.241
-47.474
-47.611
-47.648
-47.579
-47.399
-47.105
-46.694
-46.162
-45.509
-44.732
-43.833
-42.812
-41.67
-40.41
-39.035
-37.548
-35.956
-34.262
-32.472
-30.594
-28.636
-26.605
-24.511
-22.364
-20.175
-17.955
-15.719
-13.477
-11.242
-9.027
-6.843
-4.703
-2.617
-0.594
1.355
3.22
4.992
6.66
8.214
9.648
10.953
12.126
13.163
14.064
14.831
15.466
15.975
16.359
16.621
16.757
16.765
16.645
16.403
16.045
15.584
15.033
14.41
13.74
13.042
12.33
11.612
10.893
10.177
9.474
8.792
8.143
7.546
7.021
6.578
6.218
5.926
5.674
5.432
5.165
4.83
4.39
3.82
3.083
2.153
1.019
-0.348
-1.987
-3.888
-6.002
-8.21
-10.291
-12.055
-13.356
-13.969
-13.702
-12.562
-10.703
-8.515
-6.578
-5.248
-4.783
-5.574
-7.816
-11.388
-15.853
-20.258
-23.522
-24.99
-23.999
-19.671
-11.387
1.328
18.385
38.708
61.364
85.712
110.301
133.306
152.04
162.153
161.338
149.2
125.818
94.722
57.366
11.1
-46.557
-121.69
-218.158
-330.418
-448.141
-554.885
-632.259
-670.454
-668.062
-630.835
-569.802
-495.384
-414.818
-333.758
-259.097
-197.975
-154.994
-132.485
-125.876
-123.944
-119.825
-108.818
-89.687
-69.784
-52.389
-37.947
-27.845
-18.032
-6.233
6.892
21.797
36.905
50.358
61.648
70.315
76.336
80.127
82.027
82.305
81.305
79.494
77.357
75.242
73.425
72.048
71.128
70.714
70.822
71.402
72.406
73.771
75.416
77.284
79.321
81.456
83.617
85.724
87.679
89.398
90.798
91.797
92.347
92.42
92.007
91.128
89.811
88.092
86.023
83.662
81.064
78.285
75.378
72.389
69.375
66.389
63.487
60.724
58.142
55.773
53.646
51.777
50.179
48.863
47.832
47.083
46.615
46.428
46.523
46.902
47.564
48.502
49.711
51.184
52.911
54.885
57.096
59.531
62.178
65.025
68.057
71.262
74.624
78.125
81.745
85.466
89.267
93.128
97.028
100.946
104.86
108.751
112.599
116.386
120.092
123.701
127.195
130.559
133.776
136.833
139.716
142.412
144.91
147.199
149.269
151.112
152.721
154.09
155.215
156.094
156.725
157.108
157.245
157.137
156.79
156.209
155.398
154.365
153.118
151.666
150.018
148.184
146.176
144.005
141.681
139.216
136.623
133.912
131.097
128.187
125.196
122.135
119.015
115.848
112.645
109.417
106.176
102.931
99.691
96.467
93.266
90.096
86.963
83.873
80.831
77.842
74.909
72.035
69.222
66.472
63.785
61.161
58.6
56.101
53.662
51.283
48.961
46.693
44.479
42.315
40.2
38.131
36.106
34.124
32.181
30.277
28.408
26.574
24.772
23.002
21.261
19.551
17.869
16.218
14.597
13.008
11.453
9.934
8.453
7.013
5.618
4.272
2.978
1.74
0.564
-0.547
-1.588
-2.554
-3.442
-4.247
-4.965
-5.593
-6.129
-6.57
-6.915
-7.161
-7.308
-7.355
-7.303
-7.153
-6.904
-6.561
-6.124
-5.597
-4.985
-4.291
-3.52
-2.68
-1.776
-0.815
0.195
1.246
2.329
3.435
4.556
5.681
6.801
7.906
8.986
10.032
11.034
11.983
12.871
13.688
14.428
15.083
15.648
16.116
16.482
16.743
16.895
16.935
16.861
16.673
16.369
15.952
15.421
14.78
14.032
13.18
12.228
11.183
10.051
8.837
7.548
6.193
4.779
3.315
1.809
0.27
-1.294
-2.872
-4.456
-6.037
-7.607
-9.156
-10.678
-12.163
-13.606
-14.998
-16.334
-17.608
-18.814
-19.947
-21.003
-21.979
-22.87
-23.675
-24.39
-25.014
-25.547
-25.986
-26.331
-26.584
-26.744
-26.812
-26.789
-26.677
-26.477
-26.191
-25.821
-25.37
-24.839
-24.232
-23.551
-22.797
-21.975
-21.087
-20.134
-19.121
-18.05
-16.922
-15.742
-14.511
-13.233
-11.91
-10.545
-9.141
-7.702
-6.23
-4.729
-3.202
-1.653
-0.086
1.496
3.088
4.687
6.287
7.885
9.475
11.053
12.613
14.15
15.659
17.134
18.569
19.959
21.299
22.582
23.803
24.957
26.039
27.043
27.964
28.799
29.542
30.191
30.742
31.192
31.539
31.782
31.919
31.95
31.875
31.694
31.409
31.021
30.533
29.948
29.269
28.499
27.644
26.708
25.696
24.614
23.467
22.263
21.007
19.706
18.367
16.997
15.603
14.192
12.771
11.346
9.924
8.511
7.112
5.733
4.379
3.055
1.765
0.512
-0.7
-1.869
-2.994
-4.071
-5.101
-6.083
-7.017
-7.902
-8.738
-9.527
-10.27
-10.966
-11.617
-12.225
-12.79
-13.314
-13.799
-14.246
-14.656
-15.031
-15.371
-15.679
-15.955
-16.2
-16.414
-16.598
-16.751
-16.875
-16.968
-17.029
-17.059
-17.055
-17.018
-16.944
-16.833
-16.683
-16.49
-16.255
-15.973
-15.645
-15.27
-14.845
-14.371
-13.848
-13.278
-12.66
-11.998
-11.293
-10.548
-9.766
-8.952
-8.11
-7.244
-6.36
-5.464
-4.563
-3.663
-2.772
-1.898
-1.047
-0.23
0.545
1.27
1.938
2.541
3.071
3.521
3.882
4.147
4.311
4.369
4.317
4.152
3.873
3.482
2.985
2.388
1.696
0.915
0.048
-0.901
-1.923
-3.012
-4.165
-5.375
-6.641
-7.956
-9.304
-10.675
-12.063
-13.463
-14.875
-16.297
-17.715
-19.12
-20.495
-21.823
-23.096
-24.29
-25.379
-26.342
-27.156
-27.813
-28.328
-28.696
-28.915
-28.994
-28.938
-28.77
-28.536
-28.256
-27.974
-27.784
-27.712
-27.741
-27.806
-27.736
-27.41
-26.78
-25.717
-24.044
-21.7
-18.802
-15.734
-13.145
-11.505
-11.016
-11.833
-14.175
-18.239
-23.91
-30.514
-36.872
-41.904
-44.971
-45.623
-43.175
-36.657
-25.317
-9.061
11.425
35.166
61.306
88.764
115.656
139.292
156.55
164.438
160.521
142.49
109.331
61.991
2.15
-67.29
-145.664
-235.333
-334.447
-437.368
-532.495
-602.071
-637.033
-637.468
-609.539
-567.093
-518.241
-463.565
-404.924
-343.391
-282.478
-230.634
-191.232
-162.237
-140.871
-121.641
-102.116
-84.512
-70.047
-59.484
-52.111
-45.174
-37.055
-27.537
-17.028
-6.409
3.812
13.424
22.006
29.044
34.004
36.691
37.348
36.303
33.918
30.552
26.529
22.249
18.185
14.654
11.797
9.678
8.258
7.488
7.354
7.789
8.689
9.964
11.515
13.261
15.147
17.092
19
20.779
22.329
23.561
24.428
24.899
24.965
24.646
23.965
22.958
21.673
20.165
18.489
16.695
14.83
12.938
11.067
9.265
7.582
6.066
4.751
3.658
2.805
2.199
1.843
1.738
1.878
2.251
2.849
3.666
4.694
5.929
7.365
8.991
10.797
12.772
14.904
17.184
19.601
22.143
24.801
27.563
30.419
33.359
36.373
39.446
42.567
45.722
48.899
52.084
55.265
58.431
61.568
64.667
67.718
70.71
73.634
76.483
79.247
81.919
84.49
86.954
89.304
91.534
93.636
95.606
97.439
99.129
100.673
102.066
103.305
104.388
105.311
106.074
106.675
107.111
107.384
107.491
107.434
107.212
106.826
106.278
105.567
104.697
103.668
102.483
101.145
99.656
98.02
96.24
94.322
92.269
90.088
87.785
85.365
82.837
80.208
77.486
74.678
71.795
68.845
65.838
62.782
59.689
56.567
53.427
50.28
47.135
44.004
40.895
37.819
34.787
31.809
28.894
26.052
23.293
20.624
18.054
15.592
13.245
11.018
8.917
6.949
5.116
3.422
1.869
0.46
-0.805
-1.926
-2.904
-3.74
-4.437
-4.997
-5.423
-5.721
-5.894
-5.947
-5.887
-5.719
-5.451
-5.088
-4.64
-4.112
-3.514
-2.854
-2.141
-1.382
-0.588
0.234
1.075
1.927
2.781
3.63
4.467
5.286
6.079
6.841
7.568
8.254
8.896
9.489
10.032
10.522
10.957
11.334
11.654
11.916
12.118
12.261
12.345
12.371
12.34
12.253
12.113
11.92
11.677
11.388
11.055
10.68
10.269
9.822
9.345
8.841
8.312
7.763
7.195
6.614
6.02
5.416
4.806
4.191
3.572
2.951
2.331
1.711
1.093
0.478
-0.132
-0.738
-1.338
-1.932
-2.518
-3.096
-3.665
-4.225
-4.775
-5.316
-5.846
-6.365
-6.875
-7.373
-7.862
-8.34
-8.809
-9.268
-9.718
-10.159
-10.592
-11.016
-11.432
-11.84
-12.241
-12.633
-13.017
-13.393
-13.76
-14.118
-14.467
-14.806
-15.135
-15.454
-15.763
-16.061
-16.349
-16.626
-16.893
-17.149
-17.395
-17.63
-17.854
-18.068
-18.271
-18.463
-18.644
-18.815
-18.973
-19.121
-19.256
-19.378
-19.488
-19.585
-19.667
-19.735
-19.789
-19.828
-19.851
-19.86
-19.853
-19.83
-19.792
-19.739
-19.67
-19.586
-19.486
-19.37
-19.239
-19.092
-18.929
-18.751
-18.557
-18.347
-18.122
-17.881
-17.625
-17.353
-17.066
-16.762
-16.443
-16.108
-15.756
-15.389
-15.005
-14.605
-14.188
-13.754
-13.302
-12.832
-12.343
-11.832
-11.3
-10.744
-10.163
-9.555
-8.918
-8.251
-7.552
-6.819
-6.051
-5.244
-4.396
-3.506
-2.571
-1.59
-0.559
0.523
1.658
2.847
4.092
5.392
6.749
8.164
9.636
11.165
12.75
14.391
16.087
17.835
19.633
21.479
23.366
25.292
27.251
29.238
31.247
33.271
35.303
37.337
39.365
41.38
43.372
45.333
47.254
49.125
50.936
52.677
54.338
55.907
57.375
58.733
59.97
61.08
62.053
62.883
63.564
64.093
64.465
64.674
64.716
64.589
64.289
63.817
63.17
62.35
61.358
60.201
58.889
57.431
55.833
54.1
52.234
50.242
48.131
45.913
43.595
41.189
38.713
36.198
33.68
31.193
28.757
26.38
24.062
21.806
19.625
17.526
15.512
13.577
11.716
9.931
8.229
6.602
5.01
3.376
1.607
-0.38
-2.622
-5.131
-7.91
-10.981
-14.37
-18.094
-22.133
-26.427
-30.949
-35.725
-40.747
-45.914
-50.978
-55.546
-59.219
-61.744
-62.993
-62.842
-61.31
-58.605
-55.157
-51.761
-49.313
-48.422
-49.315
-52.012
-56.204
-61.247
-66.259
-69.767
-70.052
-65.758
-56.102
-40.853
-20.346
4.423
31.824
59.289
83.655
101.611
110.098
106.615
88.76
55.93
9.86
-47.361
-112.89
-186.106
-269.726
-362.871
-460.296
-551.333
-620.43
-657.597
-660.486
-634.321
-590.105
-537.71
-485.035
-436.014
-391.891
-352.172
-313.38
-273.569
-231.931
-189.561
-150.545
-117.49
-91.522
-72.305
-57.924
-47.176
-39.155
-33.049
-28.33
-24.117
-19.846
-15.474
-10.931
-6.317
-1.931
2.034
5.236
7.197
7.821
7.274
5.783
3.729
1.48
-0.708
-2.523
-3.634
-3.894
-3.261
-1.764
0.465
3.314
6.69
10.461
14.487
18.654
22.837
26.921
30.81
34.391
37.579
40.328
42.605
44.402
45.731
46.613
47.088
47.208
47.024
46.585
45.942
45.138
44.227
43.265
42.309
41.414
40.623
39.966
39.466
39.139
38.992
39.031
39.251
39.645
40.208
40.936
41.828
42.882
44.096
45.462
46.974
48.625
50.407
52.315
54.341
56.481
58.726
61.07
63.507
66.032
68.635
71.306
74.036
76.811
79.621
82.453
85.296
88.137
90.964
93.768
96.537
99.262
101.933
104.541
107.078
109.534
111.902
114.174
116.343
118.402
120.346
122.167
123.861
125.422
126.847
128.13
129.27
130.261
131.103
131.793
132.33
132.714
132.943
133.02
132.944
132.717
132.341
131.818
131.15
130.34
129.391
128.305
127.085
125.735
124.256
122.652
120.927
119.083
117.124
115.053
112.874
110.591
108.209
105.731
103.164
100.51
97.777
94.969
92.092
89.152
86.156
83.108
80.017
76.888
73.728
70.543
67.341
64.126
60.907
57.69
54.481
51.289
48.119
44.98
41.878
38.821
35.815
32.87
29.992
27.188
24.465
21.832
19.295
16.861
14.536
12.326
10.238
8.276
6.444
4.748
3.191
1.776
0.506
-0.618
-1.593
-2.42
-3.098
-3.627
-4.008
-4.243
-4.333
-4.283
-4.095
-3.773
-3.322
-2.748
-2.057
-1.255
-0.35
0.651
1.74
2.907
4.144
5.441
6.787
8.175
9.592
11.029
12.475
13.921
15.356
16.771
18.155
19.5
20.795
22.034
23.207
24.306
25.326
26.258
27.098
27.839
28.477
29.008
29.429
29.738
29.933
30.013
29.977
29.827
29.564
29.19
28.709
28.122
27.435
26.653
25.781
24.824
23.79
22.684
21.515
20.289
19.015
17.7
16.353
14.982
13.594
12.199
10.803
9.415
8.043
6.693
5.373
4.088
2.847
1.653
0.512
-0.571
-1.592
-2.548
-3.436
-4.253
-4.997
-5.669
-6.266
-6.789
-7.238
-7.614
-7.919
-8.155
-8.323
-8.428
-8.471
-8.457
-8.39
-8.274
-8.114
-7.913
-7.676
-7.409
-7.116
-6.801
-6.47
-6.125
-5.772
-5.414
-5.056
-4.7
-4.351
-4.01
-3.681
-3.365
-3.064
-2.779
-2.512
-2.261
-2.029
-1.813
-1.613
-1.428
-1.256
-1.095
-0.943
-0.797
-0.654
-0.509
-0.36
-0.203
-0.033
0.153
0.36
0.59
0.849
1.139
1.463
1.826
2.229
2.677
3.171
3.714
4.308
4.956
5.658
6.415
7.228
8.097
9.02
9.996
11.023
12.098
13.219
14.381
15.579
16.808
18.063
19.336
20.619
21.906
23.188
24.455
25.7
26.912
28.084
29.206
30.27
31.267
32.188
33.024
33.766
34.407
34.937
35.348
35.633
35.785
35.798
35.667
35.386
34.953
34.364
33.621
32.724
31.678
30.488
29.162
27.709
26.137
24.453
22.668
20.789
18.824
16.78
14.665
12.489
10.262
7.997
5.702
3.383
1.045
-1.315
-3.696
-6.097
-8.51
-10.92
-13.309
-15.658
-17.942
-20.134
-22.209
-24.148
-25.951
-27.63
-29.191
-30.634
-31.937
-33.078
-34.055
-34.877
-35.578
-36.212
-36.815
-37.445
-38.205
-39.128
-40.192
-41.298
-42.182
-42.601
-42.41
-41.414
-39.515
-36.883
-33.809
-30.814
-28.685
-27.983
-29.142
-32.679
-38.714
-46.832
-56.3
-65.892
-74.144
-79.951
-82.122
-79.265
-70.535
-55.743
-35.419
-10.877
16.308
44.525
71.424
94.079
109.695
115.663
110.143
91.913
59.72
13.834
-43.171
-108.322
-178.138
-251.253
-329.611
-412.051
-494.216
-567.559
-619.441
-641.878
-632.566
-595.295
-539.229
-474.403
-410.369
-353.311
-306.725
-269.823
-237.777
-207.489
-176.295
-144.554
-116.502
-94.017
-77.908
-67.839
-60.918
-55.373
-50.417
-45.07
-39.291
-33.29
-26.955
-20.448
-14.198
-8.482
-3.695
-0.399
1.258
1.374
0.092
-2.221
-5.171
-8.455
-11.67
-14.404
-16.447
-17.69
-18.118
-17.827
-16.889
-15.366
-13.374
-11.028
-8.438
-5.699
-2.881
-0.067
2.645
5.15
7.341
9.145
10.525
11.458
11.942
11.998
11.647
10.93
9.901
8.604
7.084
5.386
3.548
1.618
-0.354
-2.318
-4.222
-6.025
-7.7
-9.225
-10.585
-11.771
-12.779
-13.608
-14.262
-14.743
-15.049
-15.179
-15.13
-14.899
-14.488
-13.899
-13.133
-12.192
-11.077
-9.79
-8.332
-6.704
-4.909
-2.948
-0.823
1.464
3.907
6.5
9.237
12.11
15.11
18.231
21.461
24.793
28.215
31.72
35.295
38.933
42.621
46.347
50.102
53.873
57.648
61.414
65.16
68.872
72.537
76.144
79.678
83.128
86.481
89.725
92.848
95.839
98.686
101.379
103.907
106.26
108.43
110.407
112.183
113.75
115.102
116.233
117.137
117.811
118.251
118.454
118.419
118.145
117.633
116.884
115.9
114.686
113.247
111.588
109.716
107.64
105.368
102.911
100.279
97.483
94.535
91.448
88.235
84.91
81.487
77.981
74.405
70.775
67.107
63.415
59.713
56.018
52.344
48.704
45.114
41.586
38.134
34.771
31.508
28.356
25.325
22.425
19.665
17.051
14.589
12.287
10.147
8.173
6.369
4.734
3.271
1.978
0.855
-0.1
-0.89
-1.519
-1.99
-2.309
-2.481
-2.511
-2.408
-2.176
-1.825
-1.361
-0.793
-0.129
0.622
1.451
2.349
3.307
4.315
5.366
6.449
7.556
8.678
9.809
10.939
12.062
13.171
14.258
15.318
16.345
17.334
18.28
19.179
20.026
20.819
21.554
22.23
22.843
23.392
23.876
24.293
24.643
24.925
25.139
25.286
25.367
25.382
25.335
25.227
25.06
24.838
24.563
24.24
23.87
23.459
23.01
22.526
22.012
21.473
20.912
20.332
19.739
19.136
18.527
17.915
17.304
16.696
16.095
15.504
14.926
14.364
13.82
13.297
12.798
12.325
11.879
11.463
11.077
10.722
10.399
10.108
9.849
9.62
9.42
9.249
9.104
8.983
8.884
8.804
8.74
8.689
8.647
8.612
8.58
8.549
8.514
8.474
8.425
8.365
8.291
8.201
8.093
7.964
7.813
7.637
7.434
7.204
6.946
6.658
6.341
5.994
5.62
5.22
4.795
4.349
3.884
3.404
2.914
2.418
1.921
1.429
0.948
0.483
0.042
-0.369
-0.745
-1.078
-1.364
-1.595
-1.767
-1.874
-1.91
-1.872
-1.754
-1.553
-1.264
-0.884
-0.411
0.16
0.829
1.597
2.465
3.433
4.498
5.657
6.909
8.247
9.666
11.16
12.722
14.343
16.015
17.729
19.474
21.241
23.017
24.791
26.552
28.288
29.986
31.636
33.224
34.739
36.171
37.508
38.742
39.864
40.866
41.739
42.476
43.07
43.519
43.818
43.965
43.96
43.804
43.503
43.064
42.494
41.8
40.986
40.059
39.027
37.898
36.68
35.379
33.998
32.538
31.013
29.436
27.82
26.178
24.514
22.833
21.152
19.489
17.865
16.301
14.802
13.378
12.049
10.833
9.762
8.856
8.115
7.534
7.099
6.784
6.573
6.438
6.31
6.145
5.865
5.356
4.622
3.722
2.747
1.881
1.22
0.757
0.618
1.023
1.956
3.247
4.448
4.829
4.059
2.146
-1.026
-5.652
-11.711
-18.925
-26.376
-32.594
-36.74
-38.502
-37.447
-32.964
-24.446
-11.591
5.216
24.925
46.781
70.47
94.443
115.477
131.426
140.869
143.676
142.263
134.297
113.563
75.932
17.853
-58.097
-142.498
-229.583
-316.274
-399.118
-477.468
-545.492
-591.336
-608.096
-591.131
-542.096
-473.577
-398.017
-328.227
-274.322
-236.725
-212.014
-193.409
-174.257
-152.948
-130.817
-111.549
-97.805
-89.349
-84.326
-79.738
-73.565
-65.487
-55.871
-45.435
-34.79
-24.259
-14.287
-5.536
1.365
6.124
8.776
9.554
8.793
6.796
3.876
0.455
-3.011
-6.184
-8.854
-10.926
-12.393
-13.251
-13.503
-13.183
-12.361
-11.11
-9.504
-7.61
-5.476
-3.162
-0.745
1.684
4.032
6.207
8.122
9.723
10.976
11.863
12.39
12.573
12.435
12.016
11.361
10.514
9.517
8.411
7.23
6.02
4.826
3.695
2.674
1.798
1.091
0.573
0.257
0.151
0.261
0.588
1.126
1.873
2.829
3.995
5.373
6.964
8.763
10.769
12.976
15.381
17.98
20.769
23.743
26.897
30.224
33.72
37.379
41.193
45.154
49.25
53.47
57.802
62.234
66.751
71.342
75.99
80.682
85.404
90.142
94.881
99.607
104.303
108.954
113.546
118.062
122.487
126.805
131
135.058
138.962
142.697
146.251
149.607
152.754
155.678
158.368
160.813
163.001
164.924
166.572
167.938
169.015
169.797
170.28
170.459
170.331
169.896
169.152
168.1
166.741
165.079
163.116
160.857
158.31
155.481
152.379
149.014
145.396
141.538
137.453
133.155
128.658
123.977
119.129
114.13
108.996
103.746
98.397
92.966
87.472
81.931
76.363
70.784
65.212
59.664
54.157
48.706
43.328
38.037
32.849
27.777
22.834
18.032
13.383
8.897
4.582
0.447
-3.502
-7.258
-10.818
-14.178
-17.337
-20.291
-23.043
-25.592
-27.939
-30.089
-32.043
-33.807
-35.385
-36.782
-38.006
-39.063
-39.96
-40.705
-41.306
-41.772
-42.111
-42.332
-42.446
-42.461
-42.387
-42.235
-42.014
-41.734
-41.406
-41.038
-40.64
-40.221
-39.788
-39.35
-38.914
-38.487
-38.076
-37.686
-37.324
-36.993
-36.7
-36.447
-36.238
-36.077
-35.967
-35.909
-35.905
-35.958
-36.069
-36.238
-36.467
-36.756
-37.105
-37.514
-37.982
-38.508
-39.09
-39.727
-40.415
-41.152
-41.934
-42.76
-43.626
-44.528
-45.463
-46.427
-47.419
-48.433
-49.467
-50.518
-51.582
-52.657
-53.739
-54.825
-55.913
-57
-58.084
-59.162
-60.231
-61.289
-62.333
-63.359
-64.366
-65.349
-66.307
-67.236
-68.135
-69
-69.83
-70.623
-71.378
-72.093
-72.768
-73.402
-73.994
-74.544
-75.051
-75.515
-75.935
-76.313
-76.647
-76.938
-77.184
-77.387
-77.545
-77.658
-77.725
-77.746
-77.72
-77.647
-77.525
-77.355
-77.136
-76.869
-76.552
-76.188
-75.776
-75.316
-74.81
-74.257
-73.658
-73.014
-72.323
-71.586
-70.803
-69.972
-69.092
-68.164
-67.186
-66.156
-65.072
-63.935
-62.743
-61.494
-60.188
-58.825
-57.403
-55.922
-54.383
-52.785
-51.13
-49.418
-47.649
-45.826
-43.95
-42.021
-40.041
-38.011
-35.933
-33.808
-31.638
-29.425
-27.17
-24.878
-22.551
-20.194
-17.812
-15.409
-12.994
-10.571
-8.148
-5.735
-3.341
-0.972
1.36
3.649
5.885
8.058
10.159
12.18
14.113
15.947
17.672
19.277
20.75
22.083
23.265
24.288
25.144
25.822
26.317
26.622
26.733
26.644
26.347
25.832
25.094
24.136
22.966
21.596
20.041
18.312
16.425
14.403
12.261
10.011
7.655
5.185
2.598
-0.1
-2.896
-5.768
-8.699
-11.688
-14.733
-17.843
-21.029
-24.293
-27.65
-31.123
-34.714
-38.407
-42.167
-45.924
-49.626
-53.235
-56.726
-60.099
-63.353
-66.48
-69.474
-72.322
-74.996
-77.47
-79.706
-81.663
-83.341
-84.767
-85.991
-87.091
-88.137
-89.205
-90.311
-91.375
-92.234
-92.637
-92.336
-91.188
-89.132
-86.12
-82.262
-77.855
-73.352
-69.484
-67.009
-66.428
-67.949
-71.547
-76.899
-83.408
-90.233
-95.966
-98.952
-97.735
-91.327
-79.498
-62.591
-41.212
-16.555
9.044
32.819
50.917
59.477
56.919
41.461
12.909
-26.371
-75.564
-133.141
-198.259
-274.354
-363.158
-461.341
-560.378
-644.086
-695.544
-706.915
-679.84
-624.225
-553.754
-478.118
-402.4
-331.432
-270.771
-224.654
-195.96
-181.964
-173.909
-165.896
-154.939
-141.081
-128.692
-119.151
-110.985
-102.908
-92.929
-80.564
-66.979
-53.141
-39.828
-27.916
-18.136
-10.831
-6.115
-3.825
-3.497
-4.731
-7.216
-10.49
-14.05
-17.551
-20.725
-23.418
-25.626
-27.318
-28.465
-29.104
-29.288
-29.072
-28.53
-27.715
-26.672
-25.466
-24.165
-22.848
-21.606
-20.52
-19.668
-19.128
-18.946
-19.15
-19.75
-20.726
-22.054
-23.699
-25.616
-27.751
-30.057
-32.481
-34.979
-37.508
-40.021
-42.471
-44.811
-46.993
-48.983
-50.754
-52.287
-53.57
-54.596
-55.359
-55.86
-56.105
-56.097
-55.839
-55.333
-54.575
-53.57
-52.321
-50.834
-49.116
-47.173
-45.011
-42.637
-40.059
-37.285
-34.323
-31.181
-27.866
-24.386
-20.753
-16.978
-13.073
-9.049
-4.919
-0.696
3.607
7.978
12.405
16.874
21.375
25.895
30.422
34.944
39.449
43.925
48.358
52.738
57.051
61.286
65.429
69.471
73.398
77.201
80.868
84.39
87.757
90.961
93.991
96.841
99.502
101.968
104.231
106.287
108.129
109.753
111.156
112.333
113.282
114.002
114.49
114.747
114.772
114.567
114.133
113.473
112.59
111.49
110.178
108.66
106.943
105.038
102.951
100.694
98.276
95.708
93.003
90.172
87.228
84.183
81.052
77.847
74.583
71.273
67.932
64.572
61.209
57.855
54.524
51.229
47.982
44.796
41.683
38.654
35.719
32.889
30.173
27.579
25.115
22.789
20.606
18.571
16.69
14.964
13.399
11.994
10.752
9.673
8.756
8.001
7.406
6.968
6.685
6.552
6.565
6.72
7.011
7.433
7.979
8.644
9.421
10.304
11.286
12.36
13.521
14.76
16.071
17.448
18.884
20.373
21.908
23.483
25.092
26.729
28.389
30.065
31.754
33.448
35.144
36.836
38.519
40.189
41.841
43.471
45.076
46.65
48.191
49.696
51.16
52.581
53.955
55.279
56.551
57.768
58.926
60.023
61.056
62.024
62.922
63.75
64.506
65.186
65.791
66.317
66.765
67.133
67.421
67.629
67.757
67.805
67.775
67.669
67.488
67.235
66.911
66.522
66.068
65.556
64.987
64.368
63.703
62.997
62.257
61.487
60.695
59.886
59.069
58.249
57.435
56.632
55.85
55.095
54.374
53.696
53.068
52.498
51.993
51.561
51.208
50.941
50.766
50.689
50.716
50.851
51.1
51.466
51.955
52.57
53.314
54.19
55.201
56.349
57.634
59.058
60.621
62.323
64.164
66.144
68.261
70.513
72.9
75.419
78.068
80.843
83.74
86.754
89.883
93.122
96.464
99.906
103.441
107.058
110.756
114.532
118.371
122.263
126.196
130.156
134.143
138.164
142.198
146.226
150.265
154.326
158.415
162.548
166.695
170.807
174.899
179.002
183.002
186.763
190.343
193.724
196.875
200.059
202.547
203.632
204.326
204.944
207.36
213.812
