Name,Enes Ozkan
Date of Birth,"5 Nov 2001"
Recorded Date,2023-01-27 12:36:20 +0000
Classification,Sinus Rhythm
Symptoms,
Software Version,1.90
Device,"Watch6,14"
Sample Rate,512 hertz


Lead,Lead I
Unit,µV

-111.745
-124.964
-124.942
-110.751
-89.318
-66.495
-49.15
-39.09
-31.596
-24.19
-15.562
-5.609
3.247
10.127
15.722
20.412
24.546
28.162
31.115
33.447
35.35
37.28
38.422
37.015
33.561
29.222
27.083
33.211
46.707
61.903
72.204
67.076
46.868
21.862
0.868
-4.982
5.333
21.581
36.677
43.89
41.828
36.606
31.601
28.515
27.957
27.865
27.354
26.724
25.953
25.242
24.666
24
23.166
22.203
21.085
19.759
18.241
16.587
14.858
13.126
11.431
9.766
8.137
6.567
5.067
3.648
2.315
1.062
-0.11
-1.189
-2.166
-3.034
-3.786
-4.425
-4.951
-5.363
-5.662
-5.845
-5.912
-5.861
-5.691
-5.4
-4.982
-4.436
-3.757
-2.947
-2.006
-0.935
0.264
1.588
3.032
4.594
6.266
8.045
9.923
11.895
13.954
16.09
18.296
20.562
22.876
25.23
27.61
30.005
32.404
34.794
37.163
39.5
41.791
44.024
46.188
48.27
50.258
52.14
53.905
55.541
57.037
58.385
59.573
60.595
61.441
62.106
62.582
62.866
62.954
62.842
62.529
62.013
61.296
60.379
59.264
57.956
56.46
54.781
52.928
50.907
48.729
46.402
43.937
41.345
38.636
35.823
32.917
29.931
26.877
23.769
20.618
17.438
14.241
11.04
7.846
4.672
1.529
-1.573
-4.622
-7.61
-10.526
-13.363
-16.113
-18.769
-21.325
-23.778
-26.122
-28.355
-30.475
-32.482
-34.374
-36.154
-37.822
-39.38
-40.831
-42.178
-43.424
-44.575
-45.633
-46.604
-47.492
-48.303
-49.04
-49.71
-50.316
-50.864
-51.359
-51.805
-52.206
-52.568
-52.893
-53.187
-53.452
-53.691
-53.907
-54.103
-54.279
-54.437
-54.579
-54.702
-54.808
-54.895
-54.961
-55.004
-55.022
-55.013
-54.973
-54.9
-54.789
-54.639
-54.445
-54.206
-53.917
-53.576
-53.18
-52.727
-52.216
-51.644
-51.011
-50.315
-49.556
-48.733
-47.848
-46.9
-45.891
-44.822
-43.694
-42.511
-41.274
-39.988
-38.656
-37.283
-35.873
-34.432
-32.966
-31.481
-29.984
-28.482
-26.982
-25.491
-24.016
-22.564
-21.143
-19.761
-18.422
-17.136
-15.908
-14.743
-13.649
-12.629
-11.689
-10.833
-10.064
-9.386
-8.801
-8.311
-7.918
-7.623
-7.426
-7.328
-7.327
-7.423
-7.613
-7.895
-8.265
-8.719
-9.253
-9.861
-10.538
-11.277
-12.072
-12.917
-13.806
-14.73
-15.68
-16.649
-17.628
-18.609
-19.586
-20.55
-21.489
-22.404
-23.296
-24.161
-24.997
-25.797
-26.545
-27.239
-27.881
-28.434
-28.869
-29.172
-29.332
-29.356
-29.27
-29.079
-28.762
-28.44
-28.264
-28.14
-28.037
-28.005
-27.818
-28.094
-29.414
-30.853
-32.106
-31.313
-26.545
-19.518
-11.152
-4.886
-4.356
-8.49
-17.028
-25.801
-30.348
-30.242
-24.17
-15.567
-8.204
-3.09
-2.154
-3.536
-5.05
-6.302
-6.222
-5.421
-4.743
-4.043
-3.45
-2.89
-2.176
-1.441
-0.789
-0.207
0.291
0.7
1.031
1.287
1.473
1.605
1.704
1.763
1.776
1.745
1.669
1.546
1.379
1.165
0.901
0.589
0.231
-0.175
-0.626
-1.123
-1.666
-2.254
-2.887
-3.566
-4.29
-5.059
-5.875
-6.738
-7.646
-8.599
-9.598
-10.639
-11.723
-12.846
-14.008
-15.205
-16.435
-17.696
-18.984
-20.296
-21.627
-22.974
-24.332
-25.697
-27.063
-28.426
-29.78
-31.122
-32.446
-33.749
-35.027
-36.276
-37.491
-38.67
-39.809
-40.905
-41.952
-42.949
-43.891
-44.777
-45.604
-46.371
-47.076
-47.72
-48.302
-48.826
-49.292
-49.704
-50.065
-50.377
-50.648
-50.881
-51.085
-51.265
-51.429
-51.586
-51.744
-51.914
-52.104
-52.323
-52.58
-52.883
-53.243
-53.666
-54.161
-54.735
-55.397
-56.152
-57.01
-57.978
-59.061
-60.268
-61.601
-63.067
-64.668
-66.405
-68.279
-70.287
-72.427
-74.695
-77.086
-79.597
-82.221
-84.951
-87.781
-90.704
-93.708
-96.784
-99.919
-103.101
-106.316
-109.552
-112.797
-116.037
-119.259
-122.451
-125.601
-128.697
-131.721
-134.651
-137.462
-140.13
-142.641
-144.979
-147.126
-149.071
-150.802
-152.32
-153.636
-154.761
-155.703
-156.474
-157.079
-157.539
-157.884
-158.15
-158.373
-158.579
-158.769
-158.952
-159.144
-159.35
-159.573
-159.786
-159.918
-159.91
-159.703
-159.229
-158.449
-157.27
-155.524
-153.138
-150.117
-146.555
-142.734
-138.843
-134.894
-131.07
-127.66
-124.698
-122.119
-119.524
-115.956
-110.893
-104.344
-95.928
-85.252
-72.675
-58.697
-45.185
-35.741
-31.884
-33.919
-41.542
-52.278
-66.36
-86.244
-114.323
-154.678
-208.031
-270.348
-335.009
-391.162
-429.13
-445.003
-438.284
-413.195
-375.687
-328.209
-273.979
-218.551
-169.04
-134.511
-120.397
-124.302
-137.284
-149.419
-154.429
-151.609
-145.697
-140.681
-137.168
-134.127
-129.352
-121.982
-113.23
-104.603
-96.979
-90.663
-85.669
-81.865
-79.201
-77.525
-76.377
-75.28
-74.014
-72.504
-70.726
-68.705
-66.403
-63.795
-60.948
-57.94
-54.835
-51.68
-48.516
-45.401
-42.407
-39.602
-37.031
-34.712
-32.653
-30.86
-29.335
-28.083
-27.104
-26.388
-25.929
-25.725
-25.764
-26.024
-26.474
-27.061
-27.744
-28.488
-29.26
-30.039
-30.805
-31.539
-32.229
-32.87
-33.454
-33.973
-34.417
-34.771
-35.026
-35.176
-35.218
-35.152
-34.978
-34.698
-34.31
-33.818
-33.222
-32.523
-31.721
-30.813
-29.8
-28.681
-27.46
-26.14
-24.726
-23.223
-21.636
-19.973
-18.239
-16.442
-14.586
-12.678
-10.723
-8.727
-6.694
-4.63
-2.542
-0.433
1.69
3.823
5.96
8.096
10.228
12.353
14.468
16.57
18.657
20.726
22.774
24.797
26.791
28.751
30.671
32.545
34.368
36.134
37.84
39.479
41.05
42.548
43.971
45.313
46.571
47.736
48.8
49.756
50.595
51.308
51.888
52.323
52.607
52.737
52.708
52.516
52.153
51.607
50.87
49.94
48.814
47.494
45.982
44.28
42.399
40.365
38.2
35.928
33.562
31.102
28.553
25.922
23.215
20.439
17.591
14.645
11.591
8.42
5.127
1.711
-1.855
-5.624
-9.636
-13.92
-18.493
-23.34
-28.461
-33.864
-39.528
-45.417
-51.462
-57.559
-63.623
-69.592
-75.392
-80.957
-86.194
-90.973
-95.197
-98.798
-101.712
-103.901
-105.312
-105.871
-105.559
-104.411
-102.494
-99.927
-96.815
-93.236
-89.298
-85.117
-80.816
-76.543
-72.406
-68.477
-64.839
-61.569
-58.756
-56.529
-54.959
-54.054
-53.804
-54.145
-55.005
-56.351
-58.115
-60.162
-62.38
-64.664
-66.929
-69.177
-71.409
-73.548
-75.495
-77.281
-78.984
-80.522
-81.901
-83.148
-83.999
-85.221
-87.579
-90.117
-92.587
-93.103
-89.387
-83.991
-78.628
-75.84
-79.112
-85.387
-92.046
-97.338
-98.377
-97.147
-95.63
-94.358
-94.591
-95.512
-96.405
-96.683
-95.473
-93.885
-92.43
-92.899
-97.499
-103.71
-109.835
-113.324
-110.693
-105.025
-98.938
-94.243
-93.927
-95.875
-97.939
-99.653
-99.713
-98.885
-98.15
-97.325
-96.533
-95.712
-94.667
-93.533
-92.416
-91.289
-90.148
-89.011
-87.88
-86.752
-85.629
-84.495
-83.33
-82.147
-80.956
-79.757
-78.551
-77.34
-76.122
-74.902
-73.683
-72.464
-71.244
-70.022
-68.799
-67.574
-66.345
-65.113
-63.876
-62.632
-61.38
-60.119
-58.847
-57.564
-56.269
-54.96
-53.637
-52.3
-50.947
-49.578
-48.194
-46.794
-45.378
-43.945
-42.498
-41.036
-39.561
-38.074
-36.577
-35.071
-33.561
-32.049
-30.536
-29.028
-27.525
-26.031
-24.55
-23.084
-21.638
-20.214
-18.815
-17.447
-16.114
-14.819
-13.566
-12.359
-11.201
-10.093
-9.039
-8.039
-7.094
-6.203
-5.367
-4.587
-3.861
-3.191
-2.576
-2.018
-1.515
-1.069
-0.677
-0.338
-0.047
0.199
0.406
0.58
0.724
0.845
0.946
1.031
1.102
1.162
1.212
1.258
1.31
1.378
1.47
1.591
1.745
1.93
2.139
2.361
2.58
2.78
2.95
3.085
3.19
3.275
3.355
3.443
3.548
3.671
3.812
3.973
4.152
4.353
4.596
4.914
5.349
5.948
6.744
7.753
8.978
10.4
11.987
13.683
15.434
17.196
18.936
20.635
22.278
23.85
25.317
26.623
27.7
28.476
28.896
28.917
28.511
27.672
26.43
24.865
23.071
21.131
19.105
17.029
14.929
12.832
10.781
8.829
7.037
5.471
4.189
3.251
2.717
2.63
2.988
3.738
4.795
6.089
7.57
9.216
11.009
12.93
14.953
17.06
19.232
21.45
23.686
25.899
28.038
30.058
31.945
33.721
35.429
37.107
38.774
40.436
42.096
43.762
45.436
47.108
48.759
50.37
51.93
53.443
54.92
56.371
57.791
59.162
60.459
61.657
62.741
63.696
64.507
65.159
65.642
65.958
66.115
66.123
65.987
65.708
65.284
64.718
64.015
63.178
62.216
61.133
59.939
58.643
57.256
55.791
54.258
52.665
51.023
49.342
47.635
45.914
44.196
42.497
40.839
39.249
37.748
36.358
35.101
33.994
33.056
32.297
31.717
31.304
31.042
30.91
30.89
30.956
31.075
31.207
31.315
31.37
31.352
31.248
31.026
30.646
30.098
29.406
28.627
27.85
27.174
26.674
26.471
26.757
27.637
29.148
31.221
33.589
36.016
38.4
40.562
42.28
43.636
44.844
46.409
49.364
54.503
62.256
73.146
87.36
104.267
122.91
141.604
157.485
168.193
171.868
166.174
150.468
125.343
90.548
47.919
-1.004
-55.322
-109.515
-158.407
-196.45
-218.175
-225.582
-221.724
-210.019
-195.009
-176.242
-153.847
-129.809
-105.059
-82.131
-62.687
-46.482
-33.622
-23.986
-16.918
-11.84
-7.993
-4.262
-0.369
4.228
11.132
20.074
29.729
37.622
38.77
32.877
24.301
17.71
19.858
31.344
45.878
58.582
64.347
62.488
57.936
53.704
51.804
52.846
54.932
57.22
59.763
62.438
65.458
68.822
72.193
75.413
78.459
81.273
83.809
86.061
88.025
89.714
91.162
92.379
93.351
94.074
94.555
94.794
94.807
94.618
94.259
93.776
93.209
92.588
91.936
91.273
90.617
89.983
89.381
88.815
88.291
87.818
87.409
87.076
86.83
86.676
86.619
86.659
86.8
87.045
87.395
87.851
88.414
89.087
89.873
90.775
91.796
92.935
94.193
95.566
97.051
98.645
100.342
102.137
104.023
105.995
108.045
110.167
112.354
114.599
116.895
119.233
121.605
124.003
126.418
128.841
131.262
133.673
136.064
138.427
140.751
143.028
145.25
147.408
149.493
151.497
153.412
155.228
156.939
158.536
160.012
161.361
162.575
163.649
164.578
165.357
165.981
166.447
166.751
166.889
166.859
166.658
166.285
165.738
165.016
164.119
163.048
161.803
160.387
158.801
157.048
155.131
153.053
150.82
148.435
145.903
143.231
140.424
137.49
134.435
131.268
127.996
124.627
121.172
117.637
114.034
110.37
106.655
102.9
99.113
95.304
91.483
87.66
83.844
80.045
76.271
72.532
68.836
65.191
61.605
58.086
54.64
51.274
47.994
44.805
41.714
38.723
35.838
33.06
30.394
27.841
25.402
23.077
20.868
18.772
16.788
14.914
13.148
11.486
9.925
8.459
7.084
5.795
4.586
3.45
2.381
1.374
0.42
-0.487
-1.353
-2.186
-2.992
-3.778
-4.551
-5.315
-6.079
-6.847
-7.624
-8.417
-9.229
-10.066
-10.931
-11.828
-12.758
-13.726
-14.732
-15.778
-16.863
-17.988
-19.153
-20.354
-21.591
-22.862
-24.161
-25.487
-26.835
-28.2
-29.578
-30.963
-32.35
-33.733
-35.106
-36.465
-37.802
-39.113
-40.392
-41.633
-42.831
-43.982
-45.081
-46.123
-47.104
-48.02
-48.868
-49.645
-50.347
-50.973
-51.522
-51.991
-52.382
-52.693
-52.925
-53.081
-53.161
-53.167
-53.104
-52.973
-52.78
-52.528
-52.222
-51.868
-51.471
-51.037
-50.572
-50.082
-49.573
-49.052
-48.523
-47.994
-47.469
-46.954
-46.454
-45.975
-45.522
-45.099
-44.71
-44.36
-44.051
-43.788
-43.573
-43.407
-43.293
-43.231
-43.223
-43.269
-43.367
-43.518
-43.721
-43.973
-44.272
-44.614
-44.998
-45.418
-45.87
-46.35
-46.853
-47.373
-47.906
-48.445
-48.985
-49.522
-50.049
-50.562
-51.056
-51.524
-51.963
-52.368
-52.734
-53.058
-53.335
-53.562
-53.736
-53.855
-53.917
-53.919
-53.86
-53.739
-53.556
-53.309
-52.999
-52.626
-52.192
-51.697
-51.143
-50.533
-49.869
-49.154
-48.391
-47.584
-46.735
-45.85
-44.93
-43.982
-43.007
-42.01
-40.995
-39.966
-38.925
-37.878
-36.826
-35.773
-34.721
-33.673
-32.63
-31.594
-30.567
-29.549
-28.541
-27.544
-26.559
-25.586
-24.625
-23.675
-22.737
-21.81
-20.893
-19.985
-19.086
-18.193
-17.307
-16.426
-15.549
-14.675
-13.802
-12.93
-12.057
-11.183
-10.307
-9.427
-8.544
-7.657
-6.766
-5.871
-4.974
-4.075
-3.176
-2.278
-1.385
-0.497
0.382
1.25
2.104
2.94
3.756
4.549
5.314
6.05
6.753
7.42
8.048
8.636
9.18
9.679
10.131
10.535
10.888
11.19
11.44
11.637
11.781
11.872
11.91
11.895
11.829
11.714
11.551
11.344
11.094
10.806
10.483
10.129
9.75
9.35
8.934
8.509
8.078
7.649
7.226
6.816
6.422
6.051
5.706
5.392
5.113
4.872
4.671
4.515
4.404
4.34
4.326
4.361
4.447
4.584
4.769
5.003
5.282
5.605
5.968
6.368
6.8
7.26
7.741
8.237
8.743
9.251
9.754
10.243
10.71
11.147
11.546
11.899
12.199
12.438
12.608
12.705
12.722
12.654
12.497
12.245
11.896
11.445
10.891
10.233
9.47
8.603
7.636
6.572
5.416
4.176
2.855
1.463
0.005
-1.511
-3.077
-4.686
-6.328
-7.995
-9.673
-11.353
-13.024
-14.676
-16.298
-17.882
-19.416
-20.893
-22.307
-23.646
-24.901
-26.054
-27.085
-27.977
-28.72
-29.303
-29.719
-29.96
-30.024
-29.915
-29.652
-29.25
-28.729
-28.102
-27.382
-26.595
-25.777
-24.969
-24.221
-23.566
-23.013
-22.581
-22.288
-22.142
-22.155
-22.305
-22.524
-22.751
-22.923
-22.97
-22.84
-22.429
-21.573
-20.177
-18.223
-15.802
-13.158
-10.525
-8.041
-5.911
-4.425
-3.709
-3.657
-3.856
-3.505
-1.79
1.783
7.62
16.142
27.272
40.228
53.733
65.812
74.046
76.508
71.483
56.942
32.611
-0.593
-42.461
-91.04
-145.275
-204.374
-262.375
-313.633
-352.063
-372.58
-378.36
-372.398
-356.799
-332.955
-296.728
-247.889
-192.077
-138.029
-96.773
-74.06
-67.756
-70.387
-73.694
-72.968
-67.846
-61.298
-55.706
-51.145
-46.545
-40.242
-31.659
-21.597
-11.208
-1.634
6.48
12.891
17.5
20.387
21.742
21.843
21.072
19.836
18.412
17.026
15.848
14.941
14.351
14.1
14.169
14.535
15.19
16.11
17.269
18.641
20.183
21.863
23.657
25.519
27.396
29.222
30.919
32.442
33.766
34.869
35.742
36.377
36.775
36.956
36.954
36.797
36.513
36.126
35.652
35.121
34.564
34.011
33.498
33.048
32.675
32.393
32.212
32.137
32.173
32.314
32.55
32.874
33.283
33.772
34.337
34.974
35.675
36.434
37.243
38.098
38.992
39.92
40.875
41.854
42.852
43.865
44.891
45.927
46.967
48.009
49.047
50.077
51.096
52.099
53.083
54.045
54.981
55.89
56.771
57.622
58.441
59.229
59.985
60.708
61.397
62.052
62.672
63.259
63.809
64.324
64.802
65.242
65.643
66.004
66.323
66.6
66.831
67.016
67.152
67.237
67.268
67.244
67.161
67.017
66.81
66.535
66.191
65.775
65.284
64.715
64.065
63.332
62.512
61.605
60.607
59.517
58.335
57.058
55.687
54.223
52.665
51.016
49.277
47.451
45.541
43.551
41.485
39.348
37.144
34.88
32.562
30.197
27.791
25.352
22.888
20.408
17.919
15.431
12.951
10.49
8.055
5.656
3.302
1.001
-1.237
-3.405
-5.493
-7.494
-9.401
-11.206
-12.903
-14.486
-15.949
-17.289
-18.5
-19.579
-20.523
-21.331
-22
-22.53
-22.921
-23.173
-23.286
-23.264
-23.107
-22.82
-22.406
-21.869
-21.213
-20.445
-19.569
-18.593
-17.522
-16.363
-15.124
-13.813
-12.438
-11.006
-9.527
-8.008
-6.459
-4.887
-3.302
-1.712
-0.125
1.452
3.011
4.543
6.043
7.503
8.916
10.276
11.578
12.816
13.985
15.08
16.097
17.033
17.885
18.65
19.325
19.91
20.403
20.803
21.11
21.324
21.447
21.479
21.423
21.281
21.056
20.752
20.371
19.918
19.398
18.814
18.172
17.476
16.731
15.943
15.117
14.259
13.373
12.466
11.543
10.61
9.671
8.734
7.801
6.88
5.974
5.088
4.228
3.397
2.6
1.841
1.124
0.452
-0.172
-0.745
-1.264
-1.729
-2.136
-2.486
-2.777
-3.007
-3.178
-3.289
-3.34
-3.331
-3.264
-3.139
-2.959
-2.724
-2.437
-2.1
-1.715
-1.284
-0.81
-0.296
0.257
0.844
1.464
2.112
2.786
3.482
4.196
4.925
5.665
6.414
7.167
7.922
8.674
9.421
10.159
10.886
11.598
12.292
12.967
13.618
14.244
14.843
15.412
15.95
16.456
16.929
17.366
17.767
18.131
18.458
18.746
18.995
19.206
19.377
19.51
19.604
19.661
19.68
19.664
19.612
19.526
19.406
19.256
19.074
18.865
18.628
18.366
18.08
17.774
17.448
17.104
16.745
16.372
15.987
15.592
15.188
14.777
14.361
13.94
13.517
13.094
12.671
12.25
11.833
11.422
11.017
10.62
10.234
9.858
9.496
9.149
8.819
8.508
8.219
7.954
7.714
7.504
7.325
7.18
7.071
7.001
6.973
6.99
7.054
7.169
7.338
7.564
7.849
8.197
8.61
9.092
9.645
10.271
10.972
11.752
12.611
13.552
14.575
15.681
16.871
18.144
19.5
20.937
22.453
24.045
25.709
27.442
29.238
31.092
32.997
34.946
36.932
38.947
40.984
43.032
45.083
47.127
49.154
51.154
53.116
55.03
56.887
58.674
60.381
61.998
63.515
64.921
66.207
67.365
68.386
69.263
69.989
70.558
70.967
71.212
71.292
71.205
70.951
70.533
69.955
69.223
68.342
67.317
66.156
64.866
63.457
61.94
60.322
58.609
56.806
54.922
52.972
50.976
48.952
46.913
44.876
42.858
40.886
38.986
37.176
35.474
33.887
32.429
31.121
29.99
29.06
28.339
27.815
27.457
27.239
27.135
27.112
27.13
27.125
27.04
26.834
26.492
26.037
25.49
24.852
24.098
23.198
22.149
21.015
19.87
18.718
17.57
16.481
15.578
15.141
15.418
16.468
18.349
21.174
24.853
29.132
33.68
37.861
41.959
47.395
54.762
63.768
71.72
74.368
70.222
61.423
55.344
60.487
81.798
119.545
164.473
204.265
227.374
223.093
190.924
135.563
62.81
-18.841
-105.172
-192.853
-274.686
-341.72
-384.098
-395.469
-377.604
-338.843
-290.374
-242.632
-200.588
-165.745
-137.884
-114.051
-93.975
-77.812
-64.46
-55.802
-51.853
-51.011
-52.788
-54.716
-54.658
-52.322
-47.412
-40.225
-31.716
-22.549
-13.351
-5.069
1.657
6.591
9.6
10.819
10.579
9.15
6.848
4.101
1.2
-1.651
-4.266
-6.591
-8.603
-10.264
-11.588
-12.601
-13.308
-13.726
-13.878
-13.783
-13.479
-13.007
-12.395
-11.689
-10.937
-10.204
-9.566
-9.074
-8.757
-8.633
-8.706
-8.979
-9.452
-10.105
-10.905
-11.819
-12.817
-13.87
-14.96
-16.056
-17.127
-18.137
-19.048
-19.832
-20.471
-20.947
-21.248
-21.365
-21.29
-21.024
-20.575
-19.947
-19.144
-18.169
-17.023
-15.713
-14.245
-12.626
-10.866
-8.972
-6.951
-4.813
-2.566
-0.22
2.218
4.738
7.332
9.992
12.706
15.463
18.253
21.064
23.883
26.7
29.503
32.28
35.022
37.717
40.357
42.932
45.434
47.854
50.185
52.42
54.554
56.58
58.494
60.291
61.968
63.521
64.947
66.245
67.411
68.444
69.343
70.107
70.736
71.231
71.592
71.82
71.917
71.886
71.728
71.447
71.044
70.523
69.888
69.142
68.289
67.332
66.274
65.122
63.877
62.544
61.128
59.631
58.057
56.41
54.693
52.909
51.063
49.158
47.197
45.185
43.125
41.022
38.879
36.701
34.491
32.252
29.988
27.703
25.4
23.081
20.751
18.413
16.069
13.722
11.377
9.034
6.698
4.369
2.051
-0.256
-2.548
-4.824
-7.081
-9.318
-11.533
-13.722
-15.884
-18.017
-20.119
-22.189
-24.224
-26.225
-28.189
-30.116
-32.005
-33.854
-35.664
-37.432
-39.159
-40.842
-42.482
-44.078
-45.628
-47.134
-48.594
-50.008
-51.375
-52.694
-53.966
-55.188
-56.359
-57.479
-58.548
-59.563
-60.525
-61.433
-62.288
-63.088
-63.835
-64.528
-65.167
-65.752
-66.284
-66.762
-67.187
-67.559
-67.879
-68.147
-68.365
-68.534
-68.655
-68.73
-68.76
-68.747
-68.693
-68.599
-68.467
-68.301
-68.102
-67.875
-67.622
-67.346
-67.053
-66.746
-66.428
-66.105
-65.779
-65.455
-65.137
-64.828
-64.533
-64.254
-63.996
-63.762
-63.557
-63.382
-63.242
-63.139
-63.076
-63.055
-63.078
-63.146
-63.26
-63.423
-63.633
-63.893
-64.202
-64.56
-64.965
-65.418
-65.916
-66.457
-67.037
-67.655
-68.306
-68.986
-69.69
-70.415
-71.156
-71.908
-72.666
-73.425
-74.179
-74.925
-75.655
-76.366
-77.052
-77.708
-78.33
-78.912
-79.452
-79.944
-80.386
-80.774
-81.107
-81.38
-81.593
-81.744
-81.832
-81.855
-81.815
-81.712
-81.547
-81.323
-81.042
-80.708
-80.325
-79.897
-79.429
-78.927
-78.397
-77.846
-77.279
-76.704
-76.127
-75.558
-75.002
-74.467
-73.961
-73.493
-73.068
-72.695
-72.38
-72.13
-71.952
-71.852
-71.836
-71.909
-72.076
-72.342
-72.711
-73.185
-73.768
-74.462
-75.267
-76.183
-77.211
-78.349
-79.594
-80.944
-82.394
-83.941
-85.58
-87.305
-89.11
-90.988
-92.932
-94.935
-96.988
-99.083
-101.212
-103.367
-105.538
-107.716
-109.892
-112.058
-114.204
-116.322
-118.404
-120.44
-122.424
-124.346
-126.201
-127.98
-129.678
-131.289
-132.809
-134.232
-135.555
-136.776
-137.892
-138.903
-139.808
-140.606
-141.3
-141.891
-142.38
-142.771
-143.066
-143.271
-143.388
-143.424
-143.383
-143.272
-143.095
-142.861
-142.575
-142.245
-141.877
-141.479
-141.058
-140.621
-140.175
-139.728
-139.287
-138.858
-138.448
-138.063
-137.708
-137.389
-137.11
-136.875
-136.687
-136.549
-136.463
-136.43
-136.452
-136.529
-136.66
-136.846
-137.083
-137.371
-137.706
-138.085
-138.506
-138.962
-139.45
-139.964
-140.499
-141.047
-141.604
-142.161
-142.712
-143.248
-143.763
-144.249
-144.696
-145.099
-145.449
-145.738
-145.96
-146.108
-146.176
-146.157
-146.047
-145.84
-145.533
-145.12
-144.6
-143.968
-143.224
-142.366
-141.392
-140.303
-139.099
-137.783
-136.356
-134.821
-133.18
-131.439
-129.602
-127.675
-125.666
-123.58
-121.426
-119.213
-116.951
-114.648
-112.315
-109.962
-107.599
-105.235
-102.883
-100.55
-98.248
-95.987
-93.774
-91.622
-89.537
-87.528
-85.605
-83.775
-82.044
-80.421
-78.911
-77.517
-76.246
-75.1
-74.082
-73.192
-72.431
-71.798
-71.291
-70.909
-70.649
-70.506
-70.472
-70.542
-70.707
-70.96
-71.294
-71.7
-72.168
-72.689
-73.258
-73.874
-74.537
-75.241
-75.974
-76.718
-77.457
-78.183
-78.883
-79.541
-80.133
-80.64
-81.049
-81.359
-81.569
-81.671
-81.647
-81.47
-81.115
-80.584
-79.897
-79.088
-78.193
-77.234
-76.243
-75.267
-74.367
-73.607
-73.021
-72.596
-72.319
-72.19
-72.213
-72.468
-73.007
-73.725
-74.504
-75.186
-75.585
-75.7
-75.519
-74.753
-73.198
-70.957
-68.205
-65.439
-63.203
-61.388
-59.884
-58.942
-58.519
-58.2
-57.406
-54.805
-49.071
-39.973
-27.355
-10.981
8.574
30.158
52.163
71.86
86.258
93.207
90.542
76.281
50.631
15.61
-26.845
-74.543
-127.097
-185.681
-247.777
-306.512
-352.17
-375.904
-373.615
-347.917
-306.926
-257.217
-205.432
-158.054
-117.48
-88.158
-71.591
-63.489
-60.953
-59.34
-55.774
-52.153
-49.056
-46.833
-45.199
-41.882
-35.901
-27.56
-17.486
-7.003
2.778
11.445
18.675
24.276
28.314
30.955
32.487
33.347
34.009
34.759
35.773
37.19
39.031
41.321
44.088
47.299
50.902
54.865
59.154
63.731
68.576
73.629
78.808
84.04
89.235
94.326
99.266
104.005
108.507
112.75
116.716
120.395
123.792
126.909
129.751
132.337
134.683
136.814
138.762
140.561
142.249
143.859
145.413
146.931
148.426
149.909
151.391
152.877
154.368
155.869
157.386
158.922
160.483
162.075
163.7
165.358
167.05
168.776
170.539
172.342
174.187
176.077
178.014
180
182.039
184.132
186.279
188.479
190.729
193.026
195.367
197.747
200.16
202.601
205.065
207.546
210.037
212.533
215.026
217.51
219.976
222.418
224.829
227.2
229.524
231.794
234.003
236.143
238.208
240.192
242.088
243.891
245.596
247.197
248.692
250.075
251.345
252.497
253.531
254.444
255.235
255.904
256.451
256.877
257.181
257.367
257.436
257.39
257.232
256.965
256.592
256.118
255.545
254.88
254.126
253.288
252.372
251.383
250.326
249.207
248.03
246.801
245.526
244.208
242.853
241.465
240.049
238.608
237.147
235.668
234.176
232.672
231.16
229.642
228.12
226.598
225.076
223.556
222.04
220.529
219.024
217.526
216.035
214.552
213.076
211.608
210.147
208.692
207.244
205.802
204.365
202.931
201.502
200.075
198.651
197.227
195.805
194.384
192.963
191.543
190.124
188.706
187.291
185.879
184.47
183.066
181.667
180.275
178.89
177.513
176.145
174.788
173.442
172.109
170.789
169.485
168.197
166.927
165.677
164.446
163.237
162.051
160.888
159.75
158.638
157.553
156.495
155.467
154.467
153.496
152.555
151.643
150.76
149.904
149.076
148.273
147.494
146.738
146.003
145.288
144.591
143.91
143.244
142.59
141.945
141.308
140.677
140.048
139.42
138.79
138.157
137.517
136.869
136.211
135.54
134.855
134.152
133.431
132.689
131.924
131.135
130.319
129.476
128.605
127.705
126.776
125.818
124.83
123.813
122.767
121.694
120.594
119.468
118.318
117.146
115.953
114.742
113.515
112.274
111.023
109.763
108.497
107.228
105.959
104.692
103.43
102.177
100.934
99.705
98.494
97.303
96.135
94.994
93.882
92.802
91.756
90.746
89.776
88.846
87.958
87.115
86.315
85.562
84.855
84.194
83.58
83.012
82.489
82.011
81.575
81.181
80.826
80.509
80.228
79.98
79.764
79.576
79.415
79.277
79.16
79.06
78.974
78.898
78.829
78.763
78.697
78.627
78.549
78.46
78.356
78.233
78.089
77.92
77.723
77.496
77.235
76.938
76.605
76.232
75.819
75.364
74.867
74.328
73.746
73.12
72.453
71.742
70.99
70.197
69.364
68.492
67.583
66.639
65.662
64.653
63.616
62.553
61.466
60.36
59.236
58.098
56.949
55.793
54.633
53.473
52.315
51.164
50.023
48.893
47.779
46.683
45.608
44.554
43.526
42.523
41.549
40.605
39.691
38.809
37.96
37.144
36.362
35.614
34.9
34.22
33.573
32.959
32.377
31.826
31.305
30.812
30.345
29.904
29.485
29.087
28.707
28.342
27.99
27.648
27.314
26.985
26.657
26.329
25.998
25.661
25.315
24.957
24.585
24.197
23.79
23.362
22.91
22.433
21.929
21.399
20.839
20.245
19.615
18.945
18.231
17.476
16.683
15.843
14.959
14.049
13.119
12.185
11.256
10.306
9.319
8.311
7.255
6.1
4.829
3.403
1.798
0.102
-1.612
-3.377
-5.072
-6.427
-7.44
-8.202
-8.606
-8.995
-9.084
-7.287
-3.862
-0.335
1.11
-4.632
-18.78
-36.326
-51.308
-54.916
-42.499
-20.61
1.782
15.328
13.161
-0.338
-16.718
-29.732
-34.093
-30.956
-25.368
-19.799
-16.078
-14.422
-13.054
-11.478
-9.832
-8.018
-6.308
-4.781
-3.204
-1.507
0.284
2.211
4.287
6.473
8.739
11.057
13.372
15.665
17.94
20.184
22.379
24.515
26.58
28.561
30.451
32.236
33.901
35.432
36.817
38.045
39.109
39.999
40.708
41.232
41.566
41.708
41.654
41.404
40.955
40.306
39.458
38.413
37.176
35.752
34.15
32.379
30.45
28.374
26.158
23.811
21.335
18.735
16.019
13.196
10.28
7.293
4.261
1.218
-1.807
-4.795
-7.728
-10.595
-13.388
-16.095
-18.714
-21.245
-23.672
-25.979
-28.154
-30.183
-32.073
-33.865
-35.61
-37.372
-39.214
-41.161
-43.23
-45.452
-47.852
-50.465
-53.286
-56.27
-59.37
-62.593
-65.993
-69.571
-73.202
-76.59
-79.41
-81.469
-82.773
-83.368
-83.11
-81.922
-79.973
-77.796
-76.224
-75.77
-76.282
-77.377
-78.989
-81.003
-83.025
-84.113
-82.587
-77.24
-68.118
-55.547
-39.475
-20.272
1.353
23.289
41.105
51.994
55.422
51.761
43.919
32.095
12.389
-18.544
-66.262
-133.424
-214.991
-303.408
-386.857
-451.856
-490.641
-499.823
-479.139
-434.208
-373.995
-307.772
-247.779
-203.235
-175.582
-162.164
-155.326
-147.488
-136.646
-124.468
-115.018
-111.088
-112.42
-116.595
-120.259
-121.715
-120.668
-117.405
-112.875
-107.62
-101.972
-96.883
-93.015
-90.557
-89.877
-89.985
-89.766
-90.077
-90.897
-93.805
-100.925
-109.352
-117.183
-121.747
-119.365
-113.327
-106.462
-100.77
-99.484
-100.415
-101.332
-101.758
-100.34
-97.973
-95.802
-93.683
-91.785
-90.063
-88.301
-86.671
-85.343
-84.262
-83.363
-82.76
-82.565
-82.667
-83.054
-83.708
-84.282
-85.541
-88.221
-91.187
-94.086
-94.885
-91.159
-85.573
-79.898
-76.78
-79.859
-85.916
-92.22
-96.899
-96.858
-94.301
-91.469
-88.859
-87.836
-87.608
-87.151
-86.658
-85.996
-85.229
-84.56
-83.85
-82.984
-81.994
-80.887
-79.649
-78.283
-76.798
-75.198
-73.507
-71.75
-69.922
-68.017
-66.044
-64.006
-61.908
-59.759
-57.563
-55.322
-53.046
-50.743
-48.421
-46.089
-43.753
-41.422
-39.104
-36.807
-34.539
-32.31
-30.127
-28
-25.936
-23.945
-22.034
-20.213
-18.489
-16.869
-15.362
-13.972
-12.707
-11.571
-10.57
-9.708
-8.987
-8.411
-7.982
-7.701
-7.568
-7.584
-7.747
-8.056
-8.509
-9.104
-9.836
-10.701
-11.697
-12.817
-14.057
-15.41
-16.873
-18.436
-20.095
-21.842
-23.67
-25.571
-27.537
-29.561
-31.634
-33.747
-35.894
-38.066
-40.255
-42.454
-44.654
-46.848
-49.03
-51.194
-53.333
-55.443
-57.517
-59.552
-61.544
-63.489
-65.385
-67.228
-69.016
-70.748
-72.422
-74.036
-75.59
-77.082
-78.512
-79.881
-81.188
-82.433
-83.617
-84.74
-85.804
-86.808
-87.755
-88.646
-89.481
-90.264
-90.996
-91.678
-92.313
-92.902
-93.448
-93.951
-94.414
-94.838
-95.223
-95.571
-95.883
-96.159
-96.4
-96.606
-96.777
-96.914
-97.017
-97.085
-97.119
-97.119
-97.084
-97.014
-96.909
-96.77
-96.595
-96.386
-96.142
-95.863
-95.55
-95.203
-94.821
-94.405
-93.954
-93.469
-92.949
-92.395
-91.807
-91.186
-90.531
-89.844
-89.126
-88.378
-87.6
-86.795
-85.964
-85.108
-84.229
-83.329
-82.411
-81.477
-80.528
-79.569
-78.6
-77.626
-76.648
-75.669
-74.692
-73.718
-72.751
-71.794
-70.848
-69.916
-69.001
-68.105
-67.231
-66.383
-65.561
-64.768
-64.007
-63.279
-62.587
-61.931
-61.314
-60.736
-60.2
-59.705
-59.253
-58.844
-58.479
-58.157
-57.879
-57.643
-57.449
-57.296
-57.183
-57.108
-57.07
-57.068
-57.099
-57.163
-57.256
-57.376
-57.521
-57.688
-57.873
-58.075
-58.289
-58.513
-58.743
-58.976
-59.208
-59.437
-59.658
-59.87
-60.069
-60.251
-60.414
-60.554
-60.669
-60.756
-60.812
-60.836
-60.824
-60.775
-60.687
-60.558
-60.388
-60.173
-59.914
-59.61
-59.258
-58.858
-58.41
-57.916
-57.377
-56.795
-56.17
-55.501
-54.792
-54.051
-53.271
-52.449
-51.582
-50.664
-49.706
-48.724
-47.709
-46.654
-45.587
-44.532
-43.507
-42.541
-41.616
-40.693
-39.797
-38.974
-38.116
-37.099
-36.003
-34.822
-33.535
-32.42
-30.736
-27.765
-24.538
-21.372
-20.164
-23.185
-27.924
-32.707
-35.04
-31.498
-25.112
-18.449
-13.271
-12.486
-14.014
-15.747
-17.216
-17.138
-16.257
-15.533
-14.783
-14.129
-13.508
-12.725
-11.908
-11.159
-10.444
-9.757
-9.108
-8.494
-7.908
-7.345
-6.785
-6.208
-5.62
-5.03
-4.434
-3.833
-3.226
-2.613
-1.995
-1.375
-0.754
-0.129
0.498
1.127
1.757
2.387
3.017
3.646
4.273
4.898
5.52
6.14
6.756
7.369
7.979
8.586
9.188
9.786
10.379
10.965
11.544
12.115
12.675
13.224
13.76
14.283
14.79
15.281
15.755
16.211
16.649
17.068
17.467
17.847
18.208
18.549
18.87
19.173
19.457
19.723
19.971
20.201
20.414
20.609
20.787
20.947
21.09
21.215
21.322
21.413
21.486
21.544
21.588
21.618
21.637
21.647
21.649
21.645
21.639
21.631
21.625
21.621
21.623
21.631
21.648
21.676
21.714
21.765
21.83
21.909
22.002
22.111
22.235
22.374
22.529
22.701
22.889
23.094
23.317
23.558
23.817
24.095
24.392
24.708
25.041
25.392
25.758
26.138
26.531
26.932
27.34
27.752
28.165
28.576
28.98
29.375
29.757
30.124
30.471
30.796
31.096
31.367
31.607
31.814
31.986
32.12
32.215
32.268
32.278
32.243
32.162
32.031
31.848
31.61
31.316
30.965
30.554
30.083
29.553
28.964
28.32
27.625
26.882
26.095
25.269
24.408
23.516
22.598
21.66
20.702
19.731
18.749
17.76
16.769
15.776
14.784
13.794
12.809
11.833
10.869
9.922
8.999
8.109
7.264
6.48
5.771
5.149
4.628
4.219
3.933
3.777
3.748
3.834
4.022
4.292
4.62
4.982
5.342
5.659
5.896
6.022
6.013
5.852
5.507
4.94
4.137
3.11
1.901
0.583
-0.78
-2.119
-3.319
-4.211
-4.652
-4.575
-4.036
-3.225
-2.34
-1.497
-0.808
-0.481
-0.637
-1.128
-1.493
-0.911
1.505
6.294
13.806
24.441
38.228
54.482
71.797
88.049
100.937
108.531
108.922
100.084
80.547
50.888
13.749
-28.013
-72.267
-119.879
-173.069
-229.967
-284.421
-326.062
-344.45
-336.267
-305.812
-263.486
-220.474
-183.263
-153.139
-127.356
-103.302
-80.79
-61.392
-47.272
-38.87
-34.826
-33.17
-31.963
-30.236
-27.61
-23.552
-17.795
-10.499
-2.092
6.57
14.567
21.491
27.154
31.358
34.108
35.522
35.777
35.282
34.512
33.719
33.062
32.669
32.563
32.78
33.362
34.266
35.425
36.804
38.361
40.064
41.901
43.82
45.754
47.643
49.413
51.008
52.395
53.533
54.399
54.983
55.28
55.294
55.044
54.544
53.815
52.885
51.778
50.525
49.163
47.728
46.267
44.815
43.4
42.046
40.772
39.593
38.523
37.571
36.74
36.035
35.461
35.022
34.725
34.573
34.565
34.701
34.977
35.392
35.942
36.627
37.444
38.39
39.462
40.658
41.975
43.41
44.957
46.609
48.357
50.194
52.11
54.095
56.14
58.233
60.365
62.525
64.704
66.891
69.077
71.251
73.402
75.521
77.599
79.626
81.594
83.494
85.32
87.063
88.719
90.281
91.745
93.105
94.357
95.497
96.522
97.428
98.214
98.878
99.418
99.834
100.127
100.299
100.349
100.282
100.099
99.804
99.4
98.891
98.282
97.576
96.78
95.899
94.937
93.901
92.797
91.63
90.406
89.13
87.808
86.444
85.043
83.611
82.151
80.669
79.168
77.654
76.131
74.604
73.076
71.551
70.033
68.525
67.029
65.549
64.086
62.642
61.219
59.819
58.442
57.089
55.76
54.455
53.175
51.919
50.686
49.475
48.287
47.12
45.975
44.852
43.75
42.67
41.613
40.579
39.569
38.584
37.623
36.689
35.78
34.899
34.047
33.223
32.43
31.669
30.942
30.249
29.593
28.975
28.398
27.864
27.375
26.933
26.541
26.202
25.919
25.695
25.533
25.434
25.401
25.436
25.54
25.715
25.961
26.279
26.669
27.13
27.663
28.265
28.937
29.677
30.483
31.352
32.28
33.266
34.308
35.407
36.559
37.761
39.005
40.287
41.612
42.97
44.34
45.705
47.043
48.348
49.639
50.911
52.132
53.316
54.511
55.752
57.081
58.496
59.921
61.33
62.795
64.23
65.355
66.115
66.585
66.724
66.83
66.329
63.525
58.827
53.772
50.962
55.231
66.154
78.914
88.663
88.528
78.25
64.296
51.656
45.772
47.456
51.87
56.087
58.063
57.241
55.608
54.035
52.469
50.98
49.272
47.285
45.29
43.37
41.485
39.648
37.875
36.162
34.501
32.872
31.234
29.576
27.925
26.29
24.67
23.07
21.489
19.93
18.401
16.904
15.436
13.997
12.585
11.2
9.842
8.51
7.203
5.919
4.656
3.413
2.188
0.98
-0.212
-1.39
-2.555
-3.708
-4.849
-5.98
-7.101
-8.212
-9.314
-10.407
-11.492
-12.568
-13.636
-14.695
-15.744
-16.783
-17.811
-18.826
-19.827
-20.813
-21.78
-22.729
-23.655
-24.557
-25.433
-26.28
-27.096
-27.878
-28.621
-29.325
-29.989
-30.614
-31.198
-31.741
-32.238
-32.689
-33.103
-33.474
-33.79
-34.04
-34.214
-34.31
-34.35
-34.339
-34.255
-34.116
-33.969
-33.853
-33.81
-33.846
-33.902
-33.964
-34.098
-34.239
-34.157
-33.808
-33.261
-32.49
-31.748
-30.567
-27.51
-22.902
-18.063
-15.189
-18.389
-27.376
-38.042
-46.276
-46.244
-37.628
-25.935
-15.422
-10.697
-12.527
-16.794
-20.979
-23.352
-23.404
-22.817
-22.348
-21.94
-21.652
-21.229
-20.611
-20.024
-19.535
-19.106
-18.742
-18.453
-18.229
-18.061
-17.925
-17.782
-17.619
-17.452
-17.285
-17.115
-16.94
-16.757
-16.565
-16.367
-16.163
-15.949
-15.721
-15.476
-15.213
-14.929
-14.622
-14.29
-13.93
-13.541
-13.12
-12.665
-12.175
-11.648
-11.083
-10.477
-9.83
-9.141
-8.408
-7.632
-6.812
-5.949
-5.042
-4.093
-3.102
-2.071
-1.001
0.105
1.247
2.421
3.626
4.856
6.11
7.383
8.67
9.968
11.27
12.572
13.867
15.15
16.416
17.659
18.874
20.054
21.194
22.288
23.332
24.32
25.248
26.109
26.899
27.614
28.25
28.803
29.27
29.649
29.938
30.137
30.247
30.269
30.205
30.056
29.823
29.51
29.122
28.663
28.14
27.557
26.921
26.24
25.522
24.774
24.003
23.215
22.41
21.591
20.756
19.905
19.048
18.189
17.338
16.505
15.698
14.927
14.214
13.57
13.007
12.531
12.14
11.832
11.619
11.512
11.529
11.67
11.913
12.225
12.584
12.965
13.343
13.677
13.87
13.825
13.483
12.812
11.833
10.556
8.909
6.848
4.439
1.869
-0.615
-2.849
-4.875
-6.786
-8.483
-9.832
-10.826
-11.745
-13.109
-15.295
-18.266
-21.654
-25.25
-29.015
-32.759
-35.859
-37.222
-35.724
-30.674
-22.109
-10.267
4.977
23.551
44.498
66.216
85.812
99.256
104.685
101.37
89.335
72.22
50.84
22.141
-17.331
-75.615
-156.256
-251.99
-350.246
-431.496
-479.686
-492.007
-474.92
-443.222
-409.419
-377.172
-344.043
-302.571
-251.678
-197.492
-148.055
-113.768
-96.537
-90.449
-90.125
-88.807
-84.198
-79.263
-74.877
-71.458
-68.797
-64.848
-59.011
-51.963
-44.338
-37.128
-31.307
-27.293
-25.224
-25.137
-26.771
-29.702
-33.561
-37.892
-42.154
-46.004
-49.236
-51.722
-53.479
-54.537
-54.892
-54.596
-53.733
-52.369
-50.585
-48.45
-46.012
-43.347
-40.548
-37.726
-35.004
-32.468
-30.171
-28.146
-26.407
-24.966
-23.829
-22.98
-22.39
-22.028
-21.861
-21.86
-22.001
-22.245
-22.551
-22.871
-23.155
-23.368
-23.488
-23.498
-23.388
-23.149
-22.775
-22.27
-21.641
-20.893
-20.028
-19.048
-17.949
-16.735
-15.411
-13.983
-12.456
-10.834
-9.119
-7.315
-5.427
-3.457
-1.407
0.719
2.92
5.191
7.527
9.921
12.365
14.852
17.373
19.922
22.487
25.062
27.637
30.206
32.759
35.291
37.791
40.252
42.668
45.029
47.329
49.56
51.714
53.783
55.762
57.643
59.42
61.085
62.634
64.061
65.361
66.529
67.562
68.455
69.208
69.817
70.282
70.601
70.776
70.805
70.691
70.435
70.039
69.504
68.834
68.031
67.099
66.039
64.857
63.556
62.141
60.615
58.985
57.255
55.431
53.519
51.526
49.458
47.32
45.121
42.867
40.564
38.219
35.839
33.429
30.997
28.547
26.086
23.618
21.147
18.68
16.219
13.769
11.334
8.916
6.521
4.152
1.811
-0.498
-2.771
-5.006
-7.2
-9.35
-11.454
-13.509
-15.513
-17.465
-19.362
-21.204
-22.987
-24.712
-26.376
-27.979
-29.52
-30.997
-32.409
-33.755
-35.033
-36.243
-37.381
-38.447
-39.438
-40.353
-41.189
-41.946
-42.622
-43.215
-43.725
-44.151
-44.492
-44.749
-44.921
-45.009
-45.015
-44.939
-44.784
-44.55
-44.242
-43.86
-43.409
-42.891
-42.311
-41.671
-40.977
-40.232
-39.441
-38.61
-37.743
-36.847
-35.927
-34.991
-34.044
-33.094
-32.147
-31.21
-30.291
-29.395
-28.531
-27.703
-26.918
-26.181
-25.499
-24.874
-24.313
-23.817
-23.391
-23.036
-22.755
-22.548
-22.417
-22.36
-22.378
-22.469
-22.631
-22.861
-23.159
-23.519
-23.937
-24.411
-24.934
-25.5
-26.105
-26.742
-27.405
-28.085
-28.777
-29.474
-30.167
-30.851
-31.518
-32.161
-32.774
-33.35
-33.883
-34.369
-34.8
-35.174
-35.485
-35.731
-35.907
-36.013
-36.044
-36.001
-35.883
-35.688
-35.417
-35.07
-34.648
-34.152
-33.585
-32.949
-32.245
-31.478
-30.651
-29.768
-28.832
-27.848
-26.82
-25.751
-24.648
-23.512
-22.35
-21.164
-19.959
-18.739
-17.507
-16.268
-15.023
-13.778
-12.533
-11.293
-10.059
-8.832
-7.617
-6.413
-5.223
-4.048
-2.89
-1.75
-0.629
0.472
1.551
2.61
3.647
4.662
5.655
6.625
7.574
8.5
9.404
10.285
11.143
11.977
12.788
13.576
14.338
15.077
15.79
16.478
17.141
17.777
18.386
18.969
19.525
20.054
20.557
21.035
21.488
21.918
22.326
22.715
23.086
23.443
23.786
24.12
24.447
24.769
25.09
25.413
25.743
26.082
26.436
26.807
27.201
27.622
28.075
28.563
29.091
29.665
30.287
30.964
31.699
32.496
33.361
34.296
35.304
36.389
37.553
38.795
40.118
41.52
43
44.557
46.19
47.895
49.669
51.507
53.406
55.36
57.362
59.408
61.488
63.596
65.723
67.862
70.003
72.139
74.259
76.355
78.416
80.434
82.397
84.296
86.12
87.859
89.502
91.041
92.468
93.775
94.958
96.01
96.929
97.712
98.356
98.862
99.232
99.467
99.57
99.54
99.383
99.102
98.703
98.193
97.576
96.854
96.033
95.12
94.126
93.061
91.934
90.747
89.505
88.217
86.9
85.576
84.266
82.979
81.729
80.532
79.409
78.381
77.458
76.633
75.888
75.205
74.576
74.009
73.517
73.104
72.75
72.408
72.028
71.598
71.119
70.6
70.02
69.297
68.433
67.572
66.981
66.94
67.581
68.811
70.522
72.827
75.768
79.138
82.373
84.628
85.39
84.815
83.322
81.037
78.118
75.044
72.87
73.302
77.684
86.245
98.554
114.29
132.896
153.221
173.346
190.354
201.334
204.44
198.534
182.456
155.606
118.399
72.222
19.718
-35.834
-91.46
-144.296
-190.985
-228.352
-254.265
-267.536
-267.89
-256.848
-236.288
-207.165
-172.23
-132.914
-89.883
-48.045
-10.713
18.458
35.325
42.942
44.875
44.412
45.998
49.026
52.426
56.518
60.599
65.521
71.886
78.846
85.737
91.711
96.109
98.818
99.831
99.226
97.239
94.212
90.591
86.88
83.414
80.377
77.871
75.912
74.517
73.701
73.427
73.616
74.204
75.126
76.329
77.781
79.417
81.156
82.909
84.565
86.044
87.301
88.303
89.035
89.491
89.661
89.555
89.202
88.63
87.87
86.953
85.898
84.741
83.522
82.286
81.083
79.95
78.911
77.984
77.185
76.523
76.008
75.642
75.42
75.34
75.403
75.609
75.963
76.465
77.112
77.9
78.826
79.885
81.076
82.396
83.841
85.409
87.096
88.899
90.817
92.846
94.979
97.21
99.531
101.932
104.407
106.943
109.532
112.161
114.82
117.499
120.186
122.869
125.538
128.178
130.778
133.325
135.804
138.203
140.506
142.7
144.77
146.702
148.482
150.094
151.526
152.763
153.792
154.599
155.17
155.494
155.558
155.35
154.86
154.077
152.992
151.597
149.884
147.847
145.48
142.779
139.74
136.361
132.639
128.575
124.17
119.426
114.346
108.936
103.202
97.152
90.795
84.141
77.202
69.991
62.522
54.81
46.87
38.72
30.377
21.86
13.189
4.382
-4.539
-13.554
-22.641
-31.781
-40.952
-50.133
-59.303
-68.441
-77.526
-86.54
-95.46
-104.27
-112.95
-121.482
-129.849
-138.036
-146.028
-153.81
-161.369
-168.695
-175.775
-182.602
-189.165
-195.459
-201.477
-207.215
-212.667
-217.833
-222.709
-227.296
-231.593
-235.601
-239.324
-242.762
-245.92
-248.802
-251.413
-253.759
-255.845
-257.678
-259.267
-260.618
-261.74
-262.641
-263.331
-263.819
-264.113
-264.223
-264.159
-263.929
-263.543
-263.011
-262.341
-261.542
-260.624
-259.594
-258.461
-257.234
-255.92
-254.528
-253.065
-251.538
-249.954
-248.322
-246.648
-244.938
-243.199
-241.437
-239.659
-237.87
-236.074
-234.277
-232.483
-230.697
-228.921
-227.159
-225.415
-223.689
-221.986
-220.307
-218.653
-217.026
-215.427
-213.858
-212.318
-210.809
-209.33
-207.882
-206.464
-205.075
-203.716
-202.384
-201.08
-199.8
-198.543
-197.308
-196.091
-194.89
-193.703
-192.526
-191.358
-190.194
-189.032
-187.869
-186.703
-185.53
-184.35
-183.158
-181.953
-180.734
-179.497
-178.241
-176.963
-175.663
-174.338
-172.987
-171.608
-170.201
-168.763
-167.295
-165.794
-164.261
-162.694
-161.093
-159.459
-157.79
-156.088
-154.353
-152.586
-150.787
-148.958
-147.1
-145.214
-143.301
-141.364
-139.402
-137.418
-135.413
-133.387
-131.343
-129.281
-127.203
-125.111
-123.006
-120.89
-118.764
-116.63
-114.491
-112.348
-110.203
-108.058
-105.916
-103.778
-101.647
-99.525
-97.415
-95.318
-93.237
-91.174
-89.131
-87.11
-85.114
-83.144
-81.203
-79.292
-77.413
-75.569
-73.762
-71.994
-70.266
-68.582
-66.942
-65.349
-63.805
-62.31
-60.865
-59.472
-58.131
-56.841
-55.604
-54.418
-53.283
-52.199
-51.164
-50.176
-49.234
-48.336
-47.48
-46.662
-45.881
-45.132
-44.412
-43.717
-43.044
-42.389
-41.746
-41.111
-40.48
-39.845
-39.203
-38.548
-37.873
-37.173
-36.441
-35.672
-34.862
-34.003
-33.092
-32.124
-31.095
-30
-28.836
-27.599
-26.288
-24.898
-23.428
-21.875
-20.239
-18.519
-16.714
-14.825
-12.852
-10.797
-8.663
-6.452
-4.169
-1.817
0.6
3.074
5.601
8.172
10.78
13.418
16.075
18.743
21.412
24.071
26.712
29.325
31.9
34.427
36.896
39.299
41.627
43.87
46.02
48.068
50.005
51.823
53.515
55.073
56.492
57.767
58.893
59.869
60.694
61.367
61.89
62.264
62.492
62.576
62.519
62.325
61.999
61.546
60.974
60.292
59.51
58.634
57.675
56.641
55.541
54.386
53.183
51.941
50.671
49.388
48.113
46.871
45.682
44.563
43.529
42.595
41.774
41.076
40.502
40.042
39.687
39.43
39.263
39.181
39.167
39.194
39.228
39.23
39.174
39.058
38.87
38.597
38.236
37.78
37.256
36.739
36.293
35.977
35.875
36.034
36.554
37.618
39.297
41.576
44.359
47.361
50.352
53.244
55.799
57.696
58.935
59.68
60.412
62.129
65.541
71.007
79.078
90.088
103.58
118.639
133.693
146.327
154.412
156.043
148.98
131.495
104.047
68.743
27.798
-16.374
-64.209
-117.898
-175.381
-230.987
-275.652
-298.013
-292.526
-261.265
-210.98
-153.707
-101.042
-59.226
-31.787
-16.711
-8.199
-2.806
2.644
8.685
12.569
13.739
12.412
9.48
7.578
7.965
10.684
15.53
21.613
27.995
34.021
39.196
43.125
45.682
46.993
47.247
46.71
45.741
44.692
43.805
43.27
43.177
43.505
44.244
45.377
46.851
48.616
50.625
52.833
55.192
57.662
60.173
62.652
65.047
67.312
69.415
71.328
73.027
74.501
75.749
76.779
77.596
78.205
78.612
78.832
78.888
78.809
78.628
78.382
78.099
77.804
77.518
77.258
77.034
76.856
76.729
76.651
76.629
76.666
76.769
76.943
77.192
77.516
77.916
78.393
78.946
79.574
80.278
81.06
81.92
82.861
83.886
84.996
86.196
87.484
88.862
90.328
91.881
93.518
95.237
97.035
98.909
100.856
102.872
104.955
107.101
109.307
111.568
113.881
116.24
118.641
121.079
123.548
126.043
128.559
131.09
133.63
136.176
138.721
141.262
143.791
146.304
148.796
151.259
153.689
156.078
158.422
160.712
162.945
165.113
167.213
169.238
171.183
173.042
174.809
176.478
178.048
179.514
180.874
182.123
183.253
184.263
185.158
185.933
186.572
187.062
187.39
187.554
187.578
187.469
187.204
186.803
186.321
185.798
185.276
184.771
184.211
183.565
182.907
182.154
181.039
179.538
177.754
175.648
173.539
170.964
166.295
159.916
153.38
149.089
151.673
160.936
172.049
180.086
178.427
166.664
150.987
136.611
128.472
126.036
124.939
123.695
122.486
125.655
136.219
150.317
162.018
162.665
147.369
122.343
96.88
80.606
80.569
92.638
108.205
120.744
124.724
121.228
115.507
110.224
107.314
106.919
107.061
107.108
107.094
106.855
106.613
106.36
105.826
104.945
103.7
102.093
100.291
98.409
96.445
94.399
92.069
89.81
88.828
89.648
91.561
91.383
83.579
64.828
36.993
8.154
-9.204
-5.797
18.241
53.255
83.494
94.972
84.153
56.766
24.322
0.015
-10.749
-8.578
2.73
15.053
24.157
28.786
28.04
25.02
21.686
18.337
16.045
14.072
11.75
9.451
7.108
4.858
2.94
1.211
-0.461
-2.076
-3.673
-5.289
-6.909
-8.516
-10.098
-11.603
-12.995
-14.281
-15.474
-16.594
-17.662
-18.692
-19.694
-20.686
-21.681
-22.681
-23.684
-24.678
-25.655
-26.614
-27.555
-28.483
-29.401
-30.306
-31.198
-32.076
-32.938
-33.783
-34.608
-35.406
-36.174
-36.909
-37.61
-38.278
-38.912
-39.51
-40.071
-40.593
-41.073
-41.511
-41.903
-42.245
-42.535
-42.77
-42.949
-43.068
-43.128
-43.127
-43.065
-42.941
-42.756
-42.51
-42.204
-41.839
-41.415
-40.934
-40.395
-39.8
-39.149
-38.445
-37.688
-36.882
-36.027
-35.127
-34.184
-33.204
-32.188
-31.137
-30.052
-28.936
-27.791
-26.625
-25.44
-24.232
-23.01
-21.79
-20.586
-19.416
-18.281
-17.162
-16.061
-15.002
-13.969
-12.915
-11.804
-10.596
-9.289
-7.95
-6.594
-5.156
-3.714
-2.515
-1.599
-0.899
-0.451
0.028
-0.014
-2.092
-5.768
-9.696
-11.483
-6.79
3.821
16.071
25.592
26.197
17.903
6.478
-3.649
-7.566
-4.74
0.493
5.577
8.646
9.277
9.251
9.298
9.379
9.543
9.515
9.25
8.984
8.781
8.601
8.453
8.345
8.268
8.212
8.152
8.046
7.884
7.682
7.446
7.172
6.859
6.506
6.114
5.686
5.224
4.724
4.186
3.607
2.989
2.33
1.632
0.894
0.117
-0.698
-1.55
-2.438
-3.358
-4.309
-5.289
-6.295
-7.324
-8.372
-9.437
-10.514
-11.598
-12.686
-13.771
-14.85
-15.916
-16.965
-17.991
-18.99
-19.957
-20.886
-21.774
-22.617
-23.408
-24.144
-24.82
-25.431
-25.973
-26.443
-26.835
-27.149
-27.38
-27.527
-27.588
-27.564
-27.453
-27.257
-26.977
-26.613
-26.17
-25.65
-25.058
-24.399
-23.678
-22.903
-22.081
-21.22
-20.328
-19.413
-18.485
-17.551
-16.621
-15.704
-14.808
-13.943
-13.118
-12.343
-11.626
-10.979
-10.41
-9.928
-9.543
-9.263
-9.094
-9.043
-9.114
-9.31
-9.634
-10.087
-10.671
-11.385
-12.228
-13.2
-14.299
-15.522
-16.867
-18.325
-19.891
-21.556
-23.313
-25.156
-27.074
-29.061
-31.106
-33.202
-35.341
-37.513
-39.703
-41.89
-44.049
-46.158
-48.198
-50.152
-52.001
-53.729
-55.324
-56.778
-58.1
-59.293
-60.361
-61.306
-62.128
-62.84
-63.465
-64.034
-64.581
-65.132
-65.691
-66.27
-66.882
-67.526
-68.208
-68.9
-69.531
-70.039
-70.36
-70.422
-70.173
-69.514
-68.28
-66.366
-63.748
-60.494
-56.829
-52.974
-49.06
-45.305
-42.019
-39.345
-37.211
-35.248
-32.652
-28.638
-22.676
-14.249
-2.924
11.238
27.516
44.611
60.512
72.872
79.481
78.151
66.768
45.031
14.691
-22.59
-65.259
-114.045
-171.397
-235.52
-299.355
-350.905
-377.658
-374.346
-344.731
-299.945
-251.662
-206.468
-165.923
-127.695
-90.388
-55.775
-26.582
-5.515
6.392
10.208
7.907
1.667
-6.433
-14.341
-20.61
-24.486
-25.63
-24.285
-21.093
-16.75
-12.153
-8.354
-5.941
-5.117
-5.902
-7.974
-10.966
-14.572
-18.318
-21.765
-24.743
-27.11
-28.806
-30.051
-30.986
-31.529
-31.849
-31.981
-31.411
-30.987
-31.679
-32.389
-33.112
-31.463
-23.443
-11.969
-0.453
5.845
-1.396
-19.603
-41.715
-59.776
-63.292
-51.864
-32.244
-12.768
-2.029
-2.756
-12.188
-24.307
-34.26
-39.385
-38.562
-34.161
-27.847
-20.514
-13.732
-7.01
-0.004
6.597
12.393
16.346
17.489
16.191
13.435
9.794
5.922
1.806
-3.634
-9.609
-14.192
-15.188
-8.903
4.92
22.101
36.996
42.798
36.638
22.253
6.938
-2.388
-1.899
7.268
19.227
29.517
35.695
36.797
35.765
34.541
33.631
34
34.836
35.491
36.238
36.911
37.572
38.406
39.281
40.092
40.853
41.531
42.104
42.592
43.011
43.365
43.662
43.916
44.113
44.241
44.301
44.287
44.198
44.039
43.81
43.511
43.143
42.708
42.206
41.638
41.005
40.307
39.547
38.727
37.849
36.919
35.938
34.91
33.837
32.724
31.571
30.383
29.163
27.913
26.636
25.338
24.02
22.686
21.34
19.985
18.625
17.261
15.898
14.537
13.18
11.829
10.485
9.15
7.822
6.504
5.194
3.892
2.597
1.309
0.027
-1.251
-2.526
-3.798
-5.069
-6.34
-7.613
-8.887
-10.165
-11.446
-12.731
-14.021
-15.316
-16.615
-17.919
-19.227
-20.538
-21.851
-23.165
-24.479
-25.79
-27.097
-28.396
-29.686
-30.963
-32.224
-33.464
-34.681
-35.87
-37.025
-38.144
-39.221
-40.251
-41.23
-42.154
-43.017
-43.817
-44.549
-45.21
-45.796
-46.305
-46.735
-47.082
-47.346
-47.525
-47.62
-47.629
-47.554
-47.395
-47.153
-46.831
-46.431
-45.955
-45.407
-44.79
-44.108
-43.365
-42.567
-41.718
-40.824
-39.89
-38.924
-37.93
-36.915
-35.886
-34.849
-33.809
-32.772
-31.745
-30.733
-29.741
-28.774
-27.838
-26.936
-26.071
-25.249
-24.471
-23.74
-23.059
-22.429
-21.85
-21.325
-20.854
-20.437
-20.073
-19.763
-19.506
-19.299
-19.141
-19.031
-18.967
-18.946
-18.965
-19.022
-19.114
-19.237
-19.389
-19.567
-19.767
-19.986
-20.22
-20.468
-20.727
-20.997
-21.276
-21.56
-21.847
-22.133
-22.417
-22.697
-22.972
-23.239
-23.497
-23.746
-23.987
-24.224
-24.457
-24.686
-24.907
-25.117
-25.315
-25.506
-25.696
-25.89
-26.092
-26.303
-26.529
-26.776
-27.046
-27.34
-27.651
-27.971
-28.293
-28.618
-28.952
-29.307
-29.683
-30.067
-30.433
-30.747
-30.994
-31.181
-31.321
-31.422
-31.474
-31.453
-31.375
-31.304
-31.258
-31.159
-30.827
-30.063
-28.815
-27.237
-25.533
-23.764
-22.014
-20.509
-19.703
-20.156
-22.093
-25.218
-28.963
-32.958
-36.942
-40.579
-43.289
-44.289
-43.181
-40.267
-36.295
-31.852
-27.29
-22.897
-19.07
-16.434
-15.381
-15.753
-16.995
-18.623
-20.379
-22.145
-23.831
-25.192
-26.026
-26.367
-26.442
-26.47
-26.563
-26.725
-26.904
-27.102
-27.358
-27.674
-28.018
-28.347
-28.636
-28.891
-29.144
-29.42
-29.723
-30.05
-30.39
-30.734
-31.082
-31.431
-31.781
-32.128
-32.468
-32.796
-33.109
-33.405
-33.68
-33.929
-34.147
-34.329
-34.471
-34.572
-34.636
-34.663
-34.656
-34.615
-34.539
-34.429
-34.286
-34.113
-33.909
-33.677
-33.417
-33.133
-32.827
-32.502
-32.162
-31.81
-31.449
-31.081
-30.709
-30.338
-29.97
-29.61
-29.259
-28.922
-28.601
-28.3
-28.022
-27.768
-27.54
-27.341
-27.172
-27.032
-26.923
-26.846
-26.799
-26.783
-26.797
-26.84
-26.912
-27.011
-27.136
-27.284
-27.453
-27.641
-27.845
-28.061
-28.286
-28.517
-28.749
-28.979
-29.204
-29.421
-29.626
-29.815
-29.984
-30.132
-30.254
-30.347
-30.409
-30.436
-30.427
-30.381
-30.298
-30.176
-30.017
-29.82
-29.587
-29.319
-29.018
-28.687
-28.327
-27.941
-27.532
-27.105
-26.664
-26.214
-25.761
-25.31
-24.868
-24.443
-24.042
-23.67
-23.332
-23.034
-22.782
-22.579
-22.43
-22.336
-22.301
-22.328
-22.422
-22.587
-22.828
-23.146
-23.542
-24.016
-24.568
-25.195
-25.89
-26.65
-27.467
-28.345
-29.287
-30.297
-31.374
-32.514
-33.711
-34.957
-36.235
-37.523
-38.791
-40.012
-41.17
-42.259
-43.279
-44.228
-45.104
-45.896
-46.593
-47.193
-47.689
-48.073
-48.341
-48.502
-48.598
-48.694
-48.867
-49.177
-49.641
-50.278
-51.118
-52.192
-53.531
-55.142
-56.97
-58.993
-61.265
-63.776
-66.454
-69.09
-71.283
-72.764
-73.465
-73.318
-72.258
-70.332
-67.649
-64.719
-62.516
-61.618
-62.11
-63.842
-66.407
-69.36
-72.16
-73.575
-71.712
-65.191
-53.455
-36.615
-15.303
9.735
37.276
65.039
89.913
109.002
120.02
121.293
111.69
90.217
57.714
17.386
-28.305
-77.429
-129.351
-185.874
-243.429
-294.074
-331.029
-346.468
-339.987
-319.161
-290.174
-260.032
-232.386
-205.308
-178.113
-150.732
-124.003
-100.746
-82.685
-70.103
-62.458
-58.316
-56.596
-56.481
-56.943
-57.217
-56.561
-54.453
-50.951
-46.391
-41.113
-35.631
-30.582
-26.363
-23.309
-21.605
-21.114
-21.656
-23.012
-24.83
-26.723
-28.414
-29.694
-30.456
-30.71
-30.459
-29.71
-28.511
-26.923
-25.01
-22.83
-20.421
-17.821
-15.069
-12.227
-9.376
-6.585
-3.911
-1.397
0.937
3.078
5.011
6.736
8.262
9.597
10.765
11.786
12.674
13.45
14.137
14.764
15.368
15.981
16.621
17.306
18.045
18.846
19.715
20.657
21.667
22.746
23.891
25.101
26.38
27.728
29.142
30.62
32.156
33.747
35.394
37.093
38.845
40.647
42.5
44.403
46.358
48.363
50.418
52.518
54.66
56.84
59.055
61.3
63.569
65.859
68.162
70.475
72.793
75.109
77.418
79.713
81.989
84.239
86.459
88.642
90.782
92.875
94.914
96.896
98.815
100.667
102.446
104.148
105.769
107.304
108.748
110.097
111.348
112.497
113.539
114.474
115.296
116.005
116.598
117.073
117.428
117.664
117.779
117.774
117.649
117.406
117.046
116.572
115.985
115.29
114.489
113.585
112.584
111.488
110.303
109.033
107.683
106.258
104.763
103.205
101.589
99.922
98.209
96.458
94.676
92.867
91.04
89.201
87.357
85.514
83.68
81.86
80.062
78.29
76.552
74.851
73.193
71.582
70.021
68.514
67.062
65.669
64.337
63.066
61.859
60.717
59.641
58.63
57.685
56.806
55.991
55.241
54.554
53.928
53.363
52.857
52.407
52.013
51.673
51.382
51.141
50.945
50.791
50.678
50.602
50.56
50.551
50.571
50.619
50.695
50.795
50.918
51.065
51.234
51.423
51.633
51.859
52.102
52.365
52.648
52.952
53.278
53.62
53.979
54.365
54.77
55.18
55.583
55.964
56.322
56.678
57.035
57.366
57.689
58.053
58.498
59.064
59.755
60.5
61.281
62.165
63.072
63.742
64.127
64.296
64.212
64.158
63.579
60.891
56.51
51.852
49.377
53.603
64.041
76.208
85.563
85.671
76.408
63.8
52.487
47.567
49.705
54.381
58.894
61.314
61.161
60.289
59.49
58.718
58.034
57.158
56.041
54.935
53.914
52.944
52.036
51.208
50.454
49.771
49.139
48.52
47.908
47.328
46.789
46.293
45.844
45.445
45.097
44.809
44.585
44.421
44.317
44.273
44.288
44.36
44.489
44.671
44.905
45.188
45.515
45.884
46.289
46.726
47.19
47.675
48.177
48.69
49.209
49.727
50.239
50.741
51.226
51.688
52.124
52.526
52.891
53.214
53.49
53.716
53.888
54.003
54.059
54.054
53.986
53.854
53.657
53.396
53.07
52.681
52.229
51.716
51.145
50.518
49.839
49.11
48.336
47.52
46.667
45.78
44.864
43.925
42.965
41.989
41.003
40.011
39.018
38.027
37.044
36.072
35.115
34.176
33.26
32.369
31.505
30.673
29.873
29.108
28.38
27.69
27.039
26.429
25.858
25.328
24.838
24.386
23.972
23.594
23.251
22.942
22.664
22.415
22.194
21.999
21.827
21.676
21.545
21.431
21.333
21.249
21.178
21.119
21.071
21.034
21.007
20.991
20.985
20.99
21.006
21.034
21.075
21.13
21.201
21.289
21.397
21.526
21.681
21.862
22.073
22.317
22.597
22.915
23.274
23.677
24.126
24.624
25.175
25.779
26.439
27.157
27.932
28.767
29.66
30.611
31.618
32.679
33.791
34.951
36.155
37.4
38.679
39.988
41.32
42.669
44.028
45.39
46.745
48.086
49.404
50.69
51.935
53.131
54.267
55.337
56.329
57.237
58.05
58.761
59.361
59.842
60.196
60.416
60.497
60.433
60.221
59.858
59.346
58.685
57.878
56.928
55.839
54.616
53.265
51.789
50.196
48.49
46.68
44.776
42.788
40.728
38.605
36.43
34.212
31.964
29.696
27.417
25.138
22.87
20.63
18.441
16.331
14.324
12.438
10.688
9.089
7.652
6.385
5.285
4.339
3.532
2.851
2.284
1.823
1.449
1.129
0.824
0.487
0.088
-0.384
-0.938
-1.589
-2.338
-3.189
-4.111
-5.027
-5.865
-6.555
-7.004
-7.145
-6.872
-6.005
-4.457
-2.219
0.616
3.754
6.893
9.854
12.354
14.057
14.953
15.181
15.207
16.103
18.784
23.865
32.046
43.604
57.989
74.332
90.91
104.803
113.329
113.78
104.13
84.425
55.238
17.53
-29.136
-86.743
-153.931
-226.177
-293.569
-342.196
-364.907
-360.64
-335.099
-301.228
-267.333
-237.431
-212.946
-190.149
-167.547
-146.427
-127.722
-113.246
-103.243
-95.647
-88.576
-81.005
-72.353
-62.627
-52.04
-40.461
-28.232
-16.401
-5.808
3.089
10.071
15.275
18.828
20.618
20.796
19.808
18.031
15.799
13.33
10.678
7.98
5.472
3.307
1.575
0.323
-0.461
-0.765
-0.552
0.174
1.378
3
4.953
7.168
9.59
12.155
14.789
17.403
19.894
22.194
24.256
26.053
27.574
28.807
29.749
30.418
30.844
31.058
31.096
30.988
30.755
30.429
30.046
29.643
29.261
28.928
28.664
28.484
28.399
28.416
28.54
28.771
29.1
29.521
30.033
30.634
31.323
32.096
32.947
33.873
34.866
35.923
37.039
38.211
39.434
40.704
42.018
43.374
44.769
46.2
47.662
49.15
50.658
52.183
53.717
55.257
56.795
58.328
59.851
61.359
62.849
64.317
65.758
67.17
68.55
69.894
71.198
72.462
73.68
74.852
75.975
77.047
78.065
79.026
79.929
80.771
81.551
82.265
82.912
83.49
83.995
84.426
84.781
85.057
85.252
85.363
85.389
85.327
85.175
84.932
84.594
84.16
83.628
82.996
82.263
81.427
80.487
79.441
78.289
77.031
75.666
74.195
72.618
70.938
69.154
67.27
65.288
63.212
61.044
58.789
56.452
54.038
51.552
49.001
46.39
43.728
41.021
38.276
35.501
32.705
29.894
27.076
24.261
21.456
18.669
15.909
13.183
10.501
7.869
5.295
2.788
0.353
-2.001
-4.268
-6.443
-8.519
-10.492
-12.356
-14.108
-15.743
-17.26
-18.656
-19.929
-21.079
-22.106
-23.01
-23.792
-24.452
-24.995
-25.42
-25.732
-25.933
-26.026
-26.016
-25.906
-25.701
-25.405
-25.023
-24.561
-24.023
-23.416
-22.745
-22.015
-21.233
-20.405
-19.537
-18.635
-17.705
-16.753
-15.785
-14.806
-13.822
-12.838
-11.857
-10.885
-9.924
-8.977
-8.048
-7.14
-6.254
-5.393
-4.559
-3.753
-2.978
-2.234
-1.522
-0.844
-0.201
0.408
0.981
1.519
2.021
2.489
2.922
3.32
3.686
4.02
4.324
4.6
4.849
5.075
5.277
5.46
5.623
5.77
5.901
6.018
6.121
6.211
6.288
6.354
6.409
6.452
6.485
6.507
6.519
6.52
6.511
6.492
6.463
6.424
6.375
6.318
6.252
6.177
6.093
6.001
5.9
5.79
5.669
5.537
5.394
5.237
5.067
4.882
4.682
4.466
4.233
3.984
3.719
3.437
3.14
2.828
2.501
2.161
1.809
1.445
1.072
0.689
0.299
-0.098
-0.501
-0.91
-1.323
-1.74
-2.161
-2.585
-3.013
-3.442
-3.874
-4.307
-4.74
-5.173
-5.604
-6.032
-6.456
-6.875
-7.288
-7.694
-8.092
-8.481
-8.861
-9.231
-9.59
-9.938
-10.276
-10.603
-10.919
-11.225
-11.521
-11.807
-12.083
-12.349
-12.605
-12.851
-13.086
-13.31
-13.522
-13.722
-13.908
-14.08
-14.239
-14.382
-14.511
-14.624
-14.722
-14.804
-14.872
-14.926
-14.966
-14.993
-15.009
-15.014
-15.01
-14.998
-14.981
-14.958
-14.933
-14.906
-14.879
-14.854
-14.833
-14.818
-14.811
-14.814
-14.829
-14.86
-14.909
-14.978
-15.071
-15.19
-15.337
-15.516
-15.73
-15.984
-16.282
-16.624
-17.008
-17.44
-17.923
-18.453
-19.026
-19.635
-20.267
-20.937
-21.663
-22.438
-23.256
-24.135
-25.08
-26.115
-27.273
-28.505
-29.744
-30.994
-32.269
-33.474
-34.517
-35.446
-36.209
-36.883
-37.863
-38.321
-37.528
-36.545
-35.413
-36.766
-43.597
-52.356
-61.041
-65.278
-59.386
-48.874
-37.969
-30.881
-33.889
-41.933
-50.373
-57.017
-57.724
-55.28
-52.712
-50.295
-49.408
-49.26
-48.72
-48.101
-47.388
-46.615
-45.969
-45.345
-44.644
-43.9
-43.122
-42.286
-41.381
-40.429
-39.45
-38.468
-37.513
-36.583
-35.676
-34.806
-33.984
-33.216
-32.509
-31.869
-31.3
-30.809
-30.405
-30.094
-29.884
-29.779
-29.786
-29.907
-30.149
-30.513
-31.001
-31.612
-32.345
-33.198
-34.169
-35.254
-36.451
-37.754
-39.161
-40.669
-42.273
-43.97
-45.753
-47.616
-49.552
-51.556
-53.62
-55.737
-57.899
-60.097
-62.323
-64.571
-66.83
-69.089
-71.331
-73.538
-75.694
-77.784
-79.794
-81.711
-83.525
-85.233
-86.839
-88.36
-89.808
-91.205
-92.567
-93.912
-95.267
-96.656
-98.106
-99.64
-101.266
-102.99
-104.825
-106.779
-108.853
-111.024
-113.238
-115.419
-117.495
-119.375
-120.982
-122.209
-122.903
-122.996
-122.499
-121.483
-120.146
-118.652
-117.052
-115.511
-114.291
-113.409
-112.774
-112.095
-110.688
-108.104
-104.204
-98.676
-91.316
-82.459
-72.687
-63.089
-55.56
-51.69
-52.789
-60.43
-75.704
-98.81
-129.438
-166.501
-207.819
-251.011
-293.293
-331.142
-361.485
-383
-395.826
-400.18
-395.867
-380.717
-351.93
-310.19
-261.11
-214.343
-179.272
-162.181
-162.552
-173.536
-189.87
-205.42
-215.324
-219.945
-216.832
-206.296
-193.289
-180.182
-171.025
-167.745
-167.218
-167.56
-167.232
-165.611
-164.325
-164.091
-164.681
-165.761
-166.663
-167.136
-167.349
-167.343
-167.083
-166.53
-165.656
-164.496
-163.108
-161.51
-159.705
-157.719
-155.621
-153.51
-151.458
-149.508
-147.687
-146.01
-144.489
-143.145
-141.99
-141.024
-140.246
-139.662
-139.273
-139.085
-139.088
-139.259
-139.566
-139.967
-140.431
-140.935
-141.461
-141.995
-142.525
-143.041
-143.538
-144.016
-144.471
-144.896
-145.282
-145.617
-145.894
-146.109
-146.262
-146.349
-146.371
-146.324
-146.208
-146.021
-145.76
-145.424
-145.005
-144.501
-143.907
-143.221
-142.444
-141.574
-140.612
-139.559
-138.417
-137.189
-135.878
-134.486
-133.016
-131.473
-129.858
-128.178
-126.437
-124.639
-122.79
-120.897
-118.966
-117.003
-115.016
-113.011
-110.996
-108.977
-106.962
-104.958
-102.973
-101.011
-99.081
-97.188
-95.34
-93.542
-91.801
-90.122
-88.51
-86.971
-85.508
-84.126
-82.828
-81.618
-80.498
-79.472
-78.54
-77.705
-76.968
-76.33
-75.792
-75.353
-75.014
-74.773
-74.628
-74.579
-74.623
-74.757
-74.978
-75.283
-75.669
-76.131
-76.667
-77.271
-77.94
-78.67
-79.456
-80.294
-81.18
-82.109
-83.079
-84.085
-85.123
-86.19
-87.282
-88.396
-89.53
-90.679
-91.841
-93.014
-94.193
-95.378
-96.566
-97.754
-98.94
-100.123
-101.301
-102.472
-103.635
-104.79
-105.935
-107.069
-108.191
-109.302
-110.399
-111.483
-112.552
-113.607
-114.646
-115.669
-116.675
-117.663
-118.631
-119.578
-120.503
-121.404
-122.279
-123.127
-123.946
-124.733
-125.488
-126.208
-126.892
-127.538
-128.145
-128.712
-129.235
-129.716
-130.151
-130.54
-130.882
-131.176
-131.42
-131.616
-131.761
-131.855
-131.899
-131.892
-131.833
-131.724
-131.564
-131.354
-131.094
-130.786
-130.43
-130.029
-129.584
-129.098
-128.571
-128.008
-127.409
-126.777
-126.116
-125.426
-124.712
-123.974
-123.215
-122.438
-121.644
-120.836
-120.016
-119.186
-118.346
-117.5
-116.647
-115.788
-114.925
-114.059
-113.19
-112.318
-111.444
-110.57
-109.695
-108.819
-107.943
-107.068
-106.192
-105.316
-104.44
-103.562
-102.683
-101.802
-100.919
-100.032
-99.142
-98.249
-97.351
-96.45
-95.543
-94.632
-93.716
-92.796
-91.87
-90.941
-90.009
-89.074
-88.138
-87.202
-86.268
-85.337
-84.411
-83.492
-82.581
-81.678
-80.787
-79.908
-79.041
-78.189
-77.352
-76.532
-75.728
-74.943
-74.175
-73.426
-72.695
-71.982
-71.286
-70.608
-69.946
-69.3
-68.667
-68.047
-67.438
-66.839
-66.247
-65.66
-65.075
-64.489
-63.899
-63.299
-62.687
-62.058
-61.408
-60.732
-60.025
-59.284
-58.503
-57.679
-56.806
-55.882
-54.901
-53.861
-52.757
-51.586
-50.345
-49.032
-47.644
-46.179
-44.636
-43.012
-41.308
-39.521
-37.652
-35.699
-33.663
-31.544
-29.341
-27.056
-24.689
-22.243
-19.719
-17.119
-14.447
-11.706
-8.899
-6.03
-3.103
-0.121
2.91
5.987
9.105
12.259
15.444
18.657
21.892
25.145
28.411
31.686
34.967
38.249
41.53
44.807
48.075
51.331
54.574
57.8
61.005
64.186
67.341
70.466
73.559
76.618
79.639
82.623
85.567
88.469
91.329
94.147
96.921
99.651
102.337
104.979
107.577
110.133
112.646
115.119
117.553
119.949
122.309
124.633
126.924
129.181
131.405
133.598
135.759
137.889
139.989
142.06
144.103
146.121
148.117
150.093
152.052
153.997
155.932
157.86
159.781
161.697
163.609
165.517
167.425
169.334
171.248
173.167
175.094
177.03
178.982
180.951
182.938
184.938
186.947
188.964
190.999
193.062
195.163
197.307
199.504
201.764
204.101
206.526
209.037
211.621
214.264
216.961
219.713
222.533
225.43
228.405
231.445
234.536
237.669
240.837
244.026
247.212
250.359
253.455
256.511
259.566
262.657
265.806
269.02
272.294
275.629
279.036
282.534
286.135
289.844
293.665
297.617
301.737
306.069
310.63
315.397
320.315
325.334
330.42
335.554
340.721
345.898
351.056
356.169
361.225
366.218
371.134
375.947
380.609
385.071
389.307
393.32
397.138
400.784
404.266
407.591
410.762
413.796
416.709
419.507
422.184
424.734
427.159
429.47
431.691
433.844
435.94
437.978
439.951
441.855
443.693
445.466
447.176
448.82
450.397
451.915
453.391
454.837
456.263
457.682
459.104
460.546
462.03
463.576
465.199
466.918
468.748
470.702
472.792
475.018
477.371
479.842
482.418
485.084
487.825
490.611
493.408
496.181
498.898
501.548
504.125
506.611
508.992
511.254
513.403
515.484
517.563
519.71
522.012
524.54
527.406
530.791
534.796
539.448
544.663
550.15
555.63
560.957
565.916
570.294
574.146
577.627
581.254
586.12
593.166
603.031
616.232
632.745
651.905
672.889
694.015
712.44
725.419
730.353
725.767
712.309
691.149
662.511
624.856
576.354
517.924
455.842
402.116
368.512
361.16
378.382
410.475
446.961
481.573
512.457
542.175
572.647
603.059
631.199
653.869
669.562
678.719
682.688
683.411
682.502
681.307
680.974
682.422
686.229
692.537
701.061
711.229
722.35
733.681
744.726
755.117
764.624
773.246
781.009
788.023
794.519
800.686
806.602
812.38
817.936
822.935
827.384
831.436
834.991
838.377
841.453
842.729
842.366
841.974
843.402
851.33
867.752
888.115
906.511
914.347
904.938
882.929
858.766
844.244
850.583
878.076
915.842
951.213
972.13
972.414
957.987
938.886
923.439
918.539
922.718
928.892
933.094
932.597
930.39
935.245
949.454
969.125
982.86
972.075
927.756
852.854
758.381
662.706
577.084
501.341
433.269
371.498
318.59
283.766
273.51
282.986
302.04
318.272
320.533
309.431
291.894
272.909
257.041
243.898
229.07
211.482
191.653
170.579
150.718
133.341
118.659
106.797
97.32
89.341
81.838
74.16
65.959
57.033
47.327
36.746
25.222
12.961
0.342
-12.373
-25.025
-37.534
-49.9
-62.056
-73.923
-85.486
-96.777
-107.836
-118.7
-129.38
-139.875
-150.204
-160.403
-170.51
-180.566
-190.601
-200.648
-210.743
-220.925
-231.236
-241.708
-252.36
-263.208
-274.254
-285.496
-296.928
-308.539
-320.309
-332.219
-344.249
-356.378
-368.586
-380.854
-393.158
-405.477
-417.785
-430.058
-442.275
-454.413
-466.449
-478.362
-490.132
-501.74
-513.167
-524.396
-535.407
-546.183
-556.706
-566.958
-576.924
-586.587
-595.932
-604.947
-613.619
-621.939
-629.898
-637.489
-644.708
-651.55
-658.013
-664.096
-669.799
-675.125
-680.076
-684.656
-688.871
-692.726
-696.229
-699.388
-702.213
-704.713
-706.899
-708.784
-710.378
-711.694
-712.745
-713.545
-714.105
-714.441
-714.566
-714.494
-714.239
-713.814
-713.234
-712.512
-711.661
-710.693
-709.621
-708.456
-707.207
-705.886
-704.502
-703.062
-701.575
-700.049
-698.489
-696.902
-695.294
-693.669
-692.032
-690.385
-688.733
-687.078
-685.421
-683.763
-682.107
-680.452
-678.797
-677.144
-675.491
-673.838
-672.182
-670.523
-668.858
-667.186
-665.503
-663.808
-662.098
-660.371
-658.623
-656.854
-655.06
-653.241
-651.394
-649.519
-647.614
-645.679
-643.713
-641.715
-639.685
-637.622
-635.527
-633.4
-631.242
-629.052
-626.831
-624.581
-622.303
-619.997
-617.665
-615.307
-612.925
-610.52
-608.094
-605.647
-603.181
-600.697
-598.197
-595.682
-593.154
-590.614
-588.062
-585.499
-582.926
-580.343
-577.75
-575.146
-572.531
-569.905
-567.266
-564.614
-561.948
-559.267
-556.569
-553.853
-551.119
-548.364
-545.586
-542.786
-539.961
-537.11
-534.231
-531.325
-528.389
-525.423
-522.427
-519.399
-516.339
-513.246
-510.12
-506.96
-503.766
-500.539
-497.278
-493.985
-490.659
-487.302
-483.916
-480.501
-477.059
-473.593
-470.103
-466.593
-463.064
-459.518
-455.958
-452.385
-448.802
-445.212
-441.616
-438.017
-434.416
-430.817
-427.22
-423.627
-420.04
-416.461
-412.891
-409.33
-405.781
-402.244
-398.721
-395.211
-391.717
-388.238
-384.775
-381.328
-377.897
-374.482
-371.082
-367.697
-364.326
-360.97
-357.626
-354.294
-350.974
-347.664
-344.363
-341.072
-337.788
-334.511
-331.239
-327.973
-324.71
-321.451
-318.194
-314.94
-311.686
-308.433
-305.181
-301.928
-298.674
-295.419
-292.162
-288.903
-285.642
-282.378
-279.112
-275.842
-272.571
-269.297
-266.021
-262.743
-259.464
-256.184
-252.904
-249.624
-246.345
-243.068
-239.792
-236.52
-233.25
-229.985
-226.726
-223.472
-220.226
-216.987
-213.759
-210.541
-207.335
-204.144
-200.967
-197.808
-194.668
-191.548
-188.451
-185.379
-182.333
-179.315
-176.328
-173.372
-170.451
-167.565
-164.715
-161.904
-159.133
-156.403
-153.715
-151.07
-148.469
-145.914
-143.404
-140.941
-138.524
-136.155
-133.833
-131.557
-129.327
-127.143
-125.002
-122.904
-120.845
-118.825
-116.841
-114.889
-112.967
-111.071
-109.199
-107.346
-105.508
-103.682
-101.864
-100.049
-98.233
-96.414
-94.586
-92.746
-90.891
-89.017
-87.12
-85.197
-83.246
-81.261
-79.24
-77.18
-75.078
-72.931
-70.736
-68.492
-66.197
-63.85
-61.449
-58.995
-56.487
-53.925
-51.31
-48.641
-45.922
-43.151
-40.332
-37.466
-34.556
-31.604
-28.613
-25.587
-22.527
-19.438
-16.322
-13.182
-10.021
-6.842
-3.648
-0.441
2.773
5.992
9.21
12.423
15.628
18.82
21.994
25.146
28.272
31.368
34.43
37.455
40.438
43.374
46.259
49.088
51.858
54.564
57.2
59.762
62.248
64.654
66.977
69.215
71.365
73.427
75.401
77.283
79.072
80.767
82.364
83.862
85.26
86.557
87.75
88.842
89.835
90.737
91.553
92.286
92.937
93.503
93.986
94.392
94.724
94.987
95.186
95.333
95.448
95.567
95.718
95.92
96.175
96.479
96.833
97.243
97.718
98.262
98.863
99.512
100.212
100.974
101.8
102.669
103.52
104.26
104.817
105.147
105.241
105.118
104.768
104.167
103.305
102.187
100.866
99.422
97.858
96.113
94.221
92.304
90.646
89.708
89.763
90.84
92.964
96.169
100.389
105.503
110.995
115.826
119.301
121.287
121.899
121.495
120.557
119.529
119.401
122.042
128.973
140.821
157.655
179.022
203.881
230.935
258.553
282.81
299.561
307.019
302.936
288.715
268.362
240.559
204.259
155.549
88.143
7.228
-76.399
-147.576
-189.107
-198.154
-181.577
-150.054
-116.858
-85.573
-53.355
-19.888
15.564
49.499
75.409
93.191
104.145
110.442
116.399
121.84
126.064
129.756
132.6
135.983
141.189
148.029
156.222
165.052
173.637
181.352
187.781
192.612
195.694
197.122
197.101
195.91
193.922
191.556
189.127
186.869
184.95
183.421
182.311
181.651
181.426
181.602
182.152
183.041
184.236
185.713
187.435
189.34
191.365
193.431
195.447
197.345
199.072
200.59
201.882
202.937
203.747
204.315
204.659
204.798
204.757
204.56
204.223
203.773
203.243
202.667
202.088
201.537
201.032
200.589
200.219
199.928
199.724
199.606
199.568
199.604
199.712
199.891
200.14
200.456
200.835
201.269
201.751
202.276
202.84
203.439
204.066
204.719
205.392
206.083
206.791
207.511
208.238
208.968
209.694
210.411
211.113
211.794
212.448
213.07
213.654
214.196
214.692
215.138
215.529
215.861
216.13
216.333
216.467
216.527
216.512
216.419
216.244
215.987
215.645
215.216
214.7
214.094
213.397
212.609
211.728
210.753
209.684
208.52
207.261
205.907
204.458
202.915
201.277
199.546
197.721
195.805
193.797
191.697
189.508
187.23
184.865
182.414
179.88
177.264
174.568
171.796
168.949
166.031
163.044
159.991
156.876
153.702
150.472
147.192
143.864
140.493
137.084
133.642
130.172
126.678
123.165
119.64
116.106
112.571
109.038
105.515
102.006
98.518
95.056
91.627
88.235
84.887
81.586
78.339
75.149
72.022
68.961
65.971
63.056
60.22
57.466
54.798
52.219
49.731
47.338
45.041
42.842
40.742
38.743
36.844
35.045
33.348
31.752
30.255
28.857
27.556
26.35
25.236
24.212
23.275
22.421
21.648
20.952
20.328
19.775
19.287
18.861
18.494
18.181
17.918
17.7
17.524
17.385
17.278
17.198
17.142
17.105
17.083
17.072
17.068
17.067
17.066
17.062
17.05
17.03
16.996
16.949
16.884
16.802
16.699
16.575
16.428
16.259
16.066
15.847
15.604
15.333
15.037
14.712
14.36
13.981
13.574
13.139
12.678
12.191
11.678
11.142
10.583
10.002
9.401
8.781
8.143
7.488
6.819
6.136
5.442
4.737
4.023
3.301
2.573
1.84
1.102
0.36
-0.383
-1.128
-1.873
-2.617
-3.357
-4.094
-4.825
-5.548
-6.262
-6.966
-7.658
-8.338
-9.003
-9.654
-10.29
-10.91
-11.514
-12.103
-12.675
-13.232
-13.774
-14.301
-14.813
-15.313
-15.8
-16.276
-16.742
-17.198
-17.647
-18.088
-18.523
-18.953
-19.379
-19.803
-20.225
-20.646
-21.069
-21.495
-21.925
-22.361
-22.805
-23.258
-23.72
-24.194
-24.68
-25.177
-25.688
-26.21
-26.745
-27.291
-27.848
-28.414
-28.988
-29.568
-30.152
-30.738
-31.323
-31.906
-32.483
-33.052
-33.611
-34.157
-34.687
-35.201
-35.694
-36.165
-36.613
-37.035
-37.429
-37.794
-38.127
-38.429
-38.697
-38.932
-39.131
-39.297
-39.427
-39.525
-39.59
-39.624
-39.629
-39.608
-39.563
-39.498
-39.417
-39.322
-39.217
-39.108
-38.999
-38.893
-38.795
-38.709
-38.639
-38.589
-38.563
-38.564
-38.594
-38.657
-38.754
-38.887
-39.058
-39.267
-39.515
-39.802
-40.127
-40.489
-40.886
-41.316
-41.777
-42.264
-42.774
-43.303
-43.845
-44.394
-44.945
-45.491
-46.025
-46.541
-47.03
-47.487
-47.903
-48.271
-48.585
-48.838
-49.022
-49.133
-49.165
-49.111
-48.969
-48.734
-48.403
-47.973
-47.443
-46.811
-46.077
-45.242
-44.306
-43.271
-42.14
-40.915
-39.601
-38.202
-36.724
-35.172
-33.554
-31.875
-30.144
-28.369
-26.558
-24.72
-22.863
-20.996
-19.129
-17.269
-15.425
-13.606
-11.819
-10.072
-8.372
-6.726
-5.138
-3.615
-2.161
-0.78
0.526
1.755
2.904
3.975
4.966
5.879
6.716
7.479
8.171
8.795
9.358
9.862
10.315
10.723
11.092
11.429
11.743
12.04
12.327
12.614
12.907
13.215
13.545
13.904
14.3
14.739
15.229
15.774
16.382
17.056
17.802
18.621
19.517
20.492
21.547
22.68
23.892
25.181
26.543
27.976
29.476
31.036
32.651
34.315
36.02
37.759
39.524
41.304
43.092
44.877
46.651
48.403
50.124
51.804
53.433
55.001
56.5
57.918
59.247
60.477
61.599
62.605
63.488
64.241
64.86
65.339
65.678
65.875
65.932
65.85
65.63
65.277
64.793
64.183
63.451
62.604
61.646
60.584
59.427
58.182
56.858
55.463
54.004
52.49
50.931
49.335
47.713
46.078
44.444
42.832
41.266
39.767
38.352
37.04
35.85
34.797
33.891
33.134
32.516
32.029
31.66
31.395
31.223
31.117
31.043
30.961
30.833
30.639
30.364
29.988
29.479
28.813
27.991
27.056
26.079
25.123
24.257
23.544
23.082
23.057
23.583
24.676
26.299
28.255
30.335
32.448
34.424
35.955
36.957
37.593
38.121
39.248
41.91
46.651
53.953
64.491
77.385
91.138
105.455
118.531
129.822
139.289
142.026
134.333
113.544
78.086
33.351
-15.988
-68.801
-124.458
-184.417
-245.772
-296.877
-325.674
-324.123
-291.398
-240.944
-189.916
-150.318
-130.036
-124.373
-122.987
-120.143
-111.092
-96.905
-82.809
-70.386
-60.268
-52.098
-43.769
-34.764
-25.568
-16.475
-8.116
-1.009
4.68
8.886
11.603
12.999
13.347
12.828
11.623
9.963
8.011
5.929
3.893
2.009
0.361
-0.956
-1.888
-2.399
-2.456
-2.06
-1.229
0.01
1.6
3.48
5.591
7.858
10.221
12.618
14.971
17.224
19.327
21.24
22.948
24.444
25.717
26.772
27.622
28.284
28.786
29.157
29.419
29.601
29.731
29.839
29.963
30.131
30.363
30.674
31.073
31.566
32.161
32.858
33.653
34.542
35.522
36.589
37.743
38.98
40.295
41.682
43.133
44.642
46.205
47.819
49.479
51.181
52.922
54.699
56.512
58.358
60.233
62.133
64.053
65.987
67.932
69.882
71.832
73.777
75.712
77.633
79.536
81.418
83.275
85.103
86.898
88.657
90.377
92.056
93.691
95.279
96.819
98.307
99.743
101.123
102.447
103.71
104.911
106.047
107.116
108.115
109.041
109.893
110.668
111.364
111.98
112.514
112.965
113.331
113.613
113.809
113.92
113.944
113.884
113.738
113.508
113.196
112.801
112.327
111.774
111.145
110.442
109.666
108.821
107.909
106.933
105.898
104.806
103.662
102.47
101.234
99.96
98.652
97.315
95.953
94.572
93.177
91.771
90.361
88.949
87.541
86.139
84.749
83.373
82.013
80.672
79.352
78.054
76.779
75.529
74.302
73.101
71.923
70.769
69.637
68.527
67.436
66.363
65.305
64.259
63.224
62.195
61.169
60.144
59.117
58.082
57.038
55.981
54.907
53.813
52.695
51.551
50.378
49.172
47.932
46.655
45.339
43.984
42.587
41.15
39.671
38.15
36.588
34.986
33.345
31.666
29.951
28.203
26.424
24.617
22.786
20.933
19.062
17.178
15.283
13.382
11.478
9.577
7.68
5.793
3.919
2.063
0.227
-1.584
-3.367
-5.119
-6.836
-8.516
-10.156
-11.754
-13.308
-14.816
-16.276
-17.688
-19.05
-20.361
-21.622
-22.833
-23.993
-25.105
-26.168
-27.184
-28.155
-29.083
-29.97
-30.819
-31.63
-32.409
-33.155
-33.873
-34.565
-35.233
-35.88
-36.509
-37.122
-37.721
-38.31
-38.89
-39.464
-40.033
-40.599
-41.164
-41.73
-42.298
-42.87
-43.446
-44.027
-44.615
-45.209
-45.81
-46.419
-47.034
-47.656
-48.283
-48.916
-49.552
-50.191
-50.831
-51.472
-52.111
-52.747
-53.379
-54.004
-54.622
-55.23
-55.828
-56.413
-56.984
-57.54
-58.08
-58.601
-59.103
-59.585
-60.046
-60.485
-60.9
-61.292
-61.659
-62.001
-62.317
-62.608
-62.872
-63.11
-63.323
-63.509
-63.669
-63.804
-63.915
-64.001
-64.063
-64.103
-64.121
-64.118
-64.094
-64.05
-63.988
-63.907
-63.809
-63.695
-63.565
-63.42
-63.262
-63.091
-62.909
-62.715
-62.513
-62.301
-62.082
-61.856
-61.624
-61.388
-61.149
-60.907
-60.665
-60.422
-60.181
-59.942
-59.708
-59.478
-59.256
-59.041
-58.836
-58.643
-58.462
-58.296
-58.147
-58.016
-57.906
-57.819
-57.756
-57.719
-57.71
-57.731
-57.783
-57.867
-57.984
-58.135
-58.321
-58.542
-58.799
-59.092
-59.419
-59.782
-60.178
-60.606
-61.066
-61.556
-62.072
-62.614
-63.178
-63.761
-64.359
-64.97
-65.587
-66.207
-66.824
-67.433
-68.028
-68.602
-69.149
-69.662
-70.135
-70.56
-70.932
-71.243
-71.487
-71.657
-71.747
-71.752
-71.667
-71.486
-71.204
-70.818
-70.324
-69.72
-69.003
-68.17
-67.222
-66.157
-64.974
-63.676
-62.263
-60.739
-59.105
-57.367
-55.53
-53.601
-51.586
-49.494
-47.333
-45.113
-42.845
-40.539
-38.207
-35.861
-33.514
-31.178
-28.866
-26.591
-24.366
-22.205
-20.118
-18.118
-16.217
-14.426
-12.754
-11.212
-9.808
-8.553
-7.453
-6.516
-5.75
-5.159
-4.747
-4.517
-4.47
-4.604
-4.916
-5.402
-6.056
-6.87
-7.839
-8.951
-10.2
-11.576
-13.068
-14.664
-16.353
-18.119
-19.949
-21.831
-23.749
-25.691
-27.644
-29.593
-31.528
-33.438
-35.309
-37.124
-38.865
-40.507
-42.028
-43.413
-44.646
-45.713
-46.603
-47.305
-47.821
-48.164
-48.348
-48.387
-48.3
-48.098
-47.804
-47.453
-47.082
-46.737
-46.45
-46.232
-46.095
-46.059
-46.139
-46.353
-46.684
-47.065
-47.422
-47.679
-47.763
-47.607
-47.103
-46.076
-44.42
-42.135
-39.325
-36.249
-33.14
-30.108
-27.328
-25.083
-23.496
-22.426
-21.442
-19.747
-16.588
-11.58
-4.386
5.373
17.565
31.313
45.206
57.28
65.294
67.357
61.613
46.023
20.478
-12.948
-52.315
-95.851
-143.823
-198.698
-259.109
-318.978
-369.129
-398.615
-401.903
-381.05
-342.806
-298.267
-257.677
-226.447
-207.123
-196.755
-189.131
-180.48
-167.463
-150.046
-131.638
-113.502
-96.664
-81.436
-66.318
-51.116
-36.382
-22.438
-10.048
0.251
8.505
14.753
19.047
21.628
22.705
22.475
21.204
19.131
16.424
13.254
9.81
6.289
2.9
-0.173
-2.799
-4.913
-6.485
-7.456
-7.792
-7.501
-6.605
-5.194
-3.388
-1.226
1.281
3.946
6.545
9.052
11.347
13.325
15.236
16.249
15.566
14.296
12.778
13.088
17.721
23.993
30.127
33.45
30.278
23.921
17.198
12.054
11.681
13.861
16.332
18.602
19.293
19.217
19.414
19.681
20.138
20.708
21.177
21.679
22.324
23.071
23.906
24.838
25.856
26.95
28.111
29.316
30.539
31.785
33.065
34.373
35.711
37.078
38.471
39.891
41.338
42.807
44.297
45.804
47.327
48.863
50.413
51.975
53.549
55.135
56.733
58.343
59.964
61.595
63.235
64.884
66.538
68.198
69.86
71.522
73.179
74.83
76.469
78.093
79.695
81.271
82.815
84.32
85.779
87.187
88.535
89.816
91.023
92.15
93.187
94.129
94.967
95.695
96.304
96.789
97.141
97.355
97.425
97.344
97.109
96.715
96.159
95.438
94.551
93.498
92.279
90.895
89.349
87.644
85.784
83.776
81.625
79.34
76.929
74.401
71.766
69.036
66.221
63.333
60.385
57.388
54.356
51.302
48.238
45.177
42.131
39.115
36.14
33.217
30.358
27.574
24.875
22.27
19.768
17.376
15.102
12.951
10.928
9.038
7.284
5.667
4.189
2.85
1.648
0.583
-0.35
-1.154
-1.833
-2.393
-2.839
-3.178
-3.416
-3.561
-3.621
-3.602
-3.513
-3.362
-3.156
-2.904
-2.614
-2.292
-1.947
-1.585
-1.212
-0.835
-0.459
-0.09
0.268
0.611
0.933
1.233
1.508
1.754
1.972
2.158
2.313
2.437
2.53
2.593
2.627
2.634
2.615
2.573
2.51
2.428
2.329
2.216
2.091
1.957
1.816
1.671
1.523
1.375
1.228
1.083
0.943
0.808
0.679
0.556
0.441
0.334
0.235
0.144
0.061
-0.013
-0.08
-0.139
-0.191
-0.237
-0.278
-0.314
-0.348
-0.379
-0.408
-0.437
-0.466
-0.495
-0.526
-0.559
-0.593
-0.63
-0.668
-0.709
-0.751
-0.793
-0.836
-0.879
-0.919
-0.957
-0.991
-1.019
-1.042
-1.058
-1.067
-1.067
-1.058
-1.039
-1.011
-0.972
-0.922
-0.862
-0.791
-0.709
-0.616
-0.514
-0.402
-0.282
-0.154
-0.021
0.117
0.258
0.4
0.54
0.677
0.807
0.929
1.04
1.137
1.217
1.276
1.314
1.325
1.309
1.263
1.186
1.075
0.93
0.75
0.533
0.281
-0.006
-0.329
-0.686
-1.075
-1.495
-1.943
-2.416
-2.912
-3.428
-3.958
-4.499
-5.046
-5.595
-6.14
-6.675
-7.195
-7.694
-8.165
-8.603
-9.001
-9.352
-9.651
-9.891
-10.066
-10.172
-10.202
-10.152
-10.019
-9.797
-9.485
-9.078
-8.577
-7.978
-7.282
-6.488
-5.599
-4.616
-3.541
-2.378
-1.131
0.194
1.593
3.059
4.585
6.163
7.786
9.444
11.129
12.83
14.537
16.24
17.928
19.591
21.218
22.799
24.323
25.78
27.16
28.455
29.653
30.748
31.729
32.59
33.323
33.922
34.382
34.701
34.877
34.91
34.8
34.55
34.163
33.641
32.989
32.209
31.308
30.288
29.158
27.925
26.596
25.182
23.69
22.13
20.511
18.841
17.13
15.386
13.617
11.834
10.051
8.287
6.564
4.904
3.322
1.833
0.451
-0.813
-1.95
-2.96
-3.851
-4.636
-5.325
-5.93
-6.463
-6.941
-7.397
-7.865
-8.389
-9.001
-9.713
-10.534
-11.479
-12.557
-13.776
-15.116
-16.511
-17.888
-19.182
-20.308
-21.196
-21.74
-21.749
-21.126
-19.86
-18.012
-15.835
-13.574
-11.334
-9.338
-7.89
-6.983
-6.468
-5.939
-4.448
-1.231
4.116
12.13
23.113
36.569
51.568
66.627
79.352
87.439
89.019
82.056
64.863
37.901
2.442
-40.775
-89.112
-141.446
-196.877
-249.242
-293.583
-325.143
-339.1
-338.056
-325.247
-303.504
-277.41
-247.804
-215.735
-183.524
-152.356
-124.59
-102.143
-85.426
-74.493
-68.317
-65.283
-63.967
-62.881
-60.872
-57.185
-51.365
-43.353
-33.529
-22.539
-11.171
-0.335
9.321
17.426
23.788
28.321
31.037
32.237
32.25
31.441
30.339
28.412
25.122
21.565
18.15
16.817
19.798
24.648
29.742
32.667
30.099
24.997
19.846
16.323
17.236
20.532
24.136
27.556
29.485
30.585
31.722
32.672
33.524
34.199
34.496
34.54
34.44
34.184
33.796
33.318
32.771
32.172
31.537
30.872
30.186
29.521
28.92
28.408
28.004
27.724
27.578
27.577
27.725
28.018
28.449
29.012
29.703
30.519
31.46
32.523
33.702
34.992
36.387
37.882
39.47
41.145
42.902
44.735
46.638
48.605
50.634
52.719
54.852
57.029
59.24
61.479
63.739
66.011
68.288
70.562
72.827
75.077
77.305
79.507
81.677
83.81
85.901
87.945
89.938
91.876
93.755
95.569
97.315
98.988
100.584
102.099
103.528
104.868
106.116
107.266
108.315
109.261
110.098
110.825
111.437
111.933
112.31
112.564
112.695
112.7
112.577
112.327
111.946
111.435
110.792
110.017
109.11
108.071
106.901
105.6
104.171
102.615
100.936
99.135
97.216
95.185
93.044
90.801
88.459
86.026
83.508
80.911
78.244
75.515
72.73
69.899
67.029
64.129
61.208
58.274
55.336
52.402
49.48
46.58
43.708
40.874
38.083
35.344
32.663
30.047
27.5
25.029
22.638
20.331
18.112
15.984
13.95
12.011
10.168
8.423
6.775
5.225
3.77
2.411
1.144
-0.032
-1.121
-2.124
-3.045
-3.888
-4.656
-5.355
-5.986
-6.557
-7.069
-7.529
-7.941
-8.309
-8.637
-8.93
-9.192
-9.426
-9.635
-9.823
-9.993
-10.148
-10.289
-10.418
-10.538
-10.65
-10.754
-10.852
-10.944
-11.032
-11.114
-11.191
-11.265
-11.334
-11.398
-11.459
-11.515
-11.566
-11.614
-11.656
-11.694
-11.727
-11.755
-11.777
-11.795
-11.807
-11.813
-11.816
-11.814
-11.809
-11.802
-11.794
-11.787
-11.783
-11.783
-11.791
-11.808
-11.838
-11.883
-11.946
-12.031
-12.14
-12.276
-12.442
-12.641
-12.875
-13.146
-13.456
-13.806
-14.198
-14.633
-15.113
-15.636
-16.205
-16.819
-17.477
-18.179
-18.926
-19.714
-20.544
-21.413
-22.32
-23.26
-24.232
-25.232
-26.255
-27.296
-28.352
-29.416
-30.483
-31.546
-32.599
-33.636
-34.649
-35.632
-36.578
-37.481
-38.333
-39.129
-39.863
-40.528
-41.12
-41.633
-42.063
-42.406
-42.659
-42.818
-42.88
-42.844
-42.707
-42.468
-42.126
-41.681
-41.134
-40.486
-39.74
-38.897
-37.963
-36.943
-35.84
-34.662
-33.415
-32.107
-30.746
-29.342
-27.903
-26.439
-24.96
-23.479
-22.006
-20.552
-19.128
-17.745
-16.414
-15.148
-13.957
-12.849
-11.834
-10.921
-10.117
-9.431
-8.87
-8.439
-8.146
-7.994
-7.991
-8.141
-8.447
-8.908
-9.524
-10.292
-11.211
-12.279
-13.489
-14.836
-16.314
-17.918
-19.649
-21.502
-23.47
-25.536
-27.68
-29.886
-32.139
-34.42
-36.71
-38.988
-41.237
-43.448
-45.621
-47.75
-49.823
-51.823
-53.727
-55.516
-57.186
-58.746
-60.214
-61.612
-62.962
-64.294
-65.648
-67.065
-68.57
-70.169
-71.848
-73.601
-75.434
-77.35
-79.352
-81.43
-83.559
-85.697
-87.789
-89.768
-91.556
-93.063
-94.184
-94.804
-94.818
-94.167
-92.804
-90.668
-87.764
-84.149
-79.95
-75.43
-70.835
-66.385
-62.383
-59.074
-56.507
-54.631
-53.163
-51.556
-49.436
-46.458
-42.182
-36.646
-30.306
-23.744
-18.259
-15.669
-17.33
-24.828
-39.144
-59.221
-84.857
-116.445
-154.239
-200.13
-251.702
-301.682
-342.62
-366.221
-370.757
-362.102
-345.837
-328.316
-312.156
-294.929
-276.347
-256.465
-235.806
-216.877
-200.528
-186.441
-174.496
-163.832
-153.45
-143.052
-132.483
-121.704
-111.096
-101.017
-91.676
-83.389
-76.472
-71.036
-67.107
-64.627
-63.37
-63.115
-63.659
-64.76
-66.223
-67.888
-69.591
-71.205
-72.617
-73.73
-74.486
-74.852
-74.803
-74.338
-73.468
-72.217
-70.645
-68.814
-66.789
-64.644
-62.438
-60.233
-58.107
-56.123
-54.331
-52.771
-51.457
-50.394
-49.59
-49.037
-48.72
-48.617
-48.694
-48.918
-49.267
-49.707
-50.21
-50.74
-51.259
-51.735
-52.146
-52.475
-52.71
-52.843
-52.864
-52.772
-52.568
-52.256
-51.838
-51.317
-50.691
-49.962
-49.135
-48.216
-47.211
-46.124
-44.96
-43.72
-42.411
-41.035
-39.594
-38.092
-36.528
-34.905
-33.226
-31.494
-29.713
-27.886
-26.016
-24.106
-22.161
-20.182
-18.175
-16.14
-14.081
-12.001
-9.903
-7.789
-5.663
-3.527
-1.385
0.761
2.908
5.051
7.189
9.317
11.432
13.532
15.611
17.666
19.692
21.686
23.642
25.556
27.422
29.235
30.99
32.679
34.298
35.84
37.298
38.667
39.941
41.113
42.178
43.131
43.966
44.679
45.266
45.722
46.045
46.231
46.279
46.186
45.953
45.577
45.061
44.405
43.61
42.679
41.616
40.423
39.104
37.666
36.112
34.45
32.687
30.829
28.886
26.864
24.775
22.627
20.429
18.193
15.928
13.645
11.352
9.061
6.781
4.522
2.293
0.102
-2.042
-4.129
-6.154
-8.108
-9.985
-11.779
-13.484
-15.095
-16.608
-18.018
-19.324
-20.52
-21.606
-22.58
-23.441
-24.188
-24.822
-25.342
-25.752
-26.052
-26.245
-26.335
-26.325
-26.219
-26.021
-25.736
-25.368
-24.921
-24.402
-23.813
-23.161
-22.451
-21.687
-20.874
-20.017
-19.121
-18.191
-17.23
-16.244
-15.237
-14.213
-13.175
-12.128
-11.075
-10.021
-8.968
-7.92
-6.88
-5.851
-4.836
-3.836
-2.855
-1.892
-0.951
-0.031
0.866
1.739
2.588
3.412
4.209
4.979
5.722
6.437
7.124
7.782
8.412
9.013
9.585
10.128
10.642
11.126
11.581
12.007
12.404
12.771
13.111
13.425
13.713
13.978
14.221
14.443
14.648
14.837
15.012
15.175
15.328
15.474
15.615
15.755
15.896
16.041
16.197
16.366
16.554
16.765
17.002
17.269
17.57
17.911
18.294
18.723
19.203
19.739
20.338
21.008
21.754
22.581
23.492
24.49
25.579
26.762
28.037
29.403
30.859
32.404
34.043
35.782
37.62
39.549
41.559
43.639
45.783
47.982
50.221
52.483
54.752
57.022
59.296
61.58
63.872
66.159
68.421
70.637
72.798
74.907
76.968
78.978
80.929
82.816
84.647
86.448
88.224
89.962
91.627
93.181
94.607
95.908
97.091
98.153
99.074
99.817
100.347
100.649
100.71
100.518
100.039
99.218
98.027
96.478
94.599
92.423
89.958
87.185
84.094
80.706
77.066
73.243
69.307
65.303
61.274
57.275
53.374
49.663
46.209
43.035
40.155
37.589
35.375
33.581
32.253
31.382
30.94
30.876
31.126
31.656
32.424
33.367
34.422
35.512
36.583
37.628
38.642
39.603
40.471
41.18
41.705
42.094
42.41
42.731
43.154
43.74
44.595
45.891
47.715
50.07
52.858
55.825
58.742
61.523
64.031
66.065
67.639
68.928
70.372
72.789
76.827
82.767
90.879
101.355
113.802
127.384
140.701
151.614
158.239
159.174
152.962
138.453
115.512
84.772
47.823
7.402
-33.833
-73.409
-108.469
-136.511
-156.03
-166.25
-167.436
-161.001
-148.461
-131.523
-112.441
-93.174
-75.092
-59.185
-45.765
-34.509
-25.038
-16.756
-8.78
-0.525
8.295
17.798
27.805
37.978
47.986
57.41
65.772
72.804
78.412
82.597
85.493
87.242
87.975
87.878
87.183
86.086
84.746
83.305
81.852
80.483
79.323
78.46
77.954
77.843
78.131
78.81
79.872
81.287
83.003
84.964
87.094
89.315
91.556
93.735
95.788
97.662
99.307
100.687
101.782
102.578
103.077
103.289
103.224
102.897
102.335
101.557
100.595
99.479
98.244
96.928
95.561
94.168
92.769
91.38
90.011
88.674
87.373
86.108
84.883
83.702
82.568
81.486
80.461
79.492
78.583
77.732
76.942
76.214
75.553
74.959
74.438
73.991
73.624
73.341
73.145
73.04
73.027
73.104
73.274
73.535
73.887
74.328
74.856
75.47
76.167
76.946
77.805
78.74
79.747
80.824
81.965
83.167
84.424
85.731
87.082
88.471
89.893
91.34
92.806
94.284
95.767
97.247
98.717
100.168
101.592
102.98
104.323
105.613
106.841
107.999
109.077
110.068
110.964
111.758
112.442
113.01
113.456
113.773
113.958
114.004
113.909
113.67
113.284
112.749
112.065
111.233
110.252
109.125
107.853
106.439
104.887
103.2
101.384
99.444
97.387
95.22
92.95
90.587
88.141
85.62
83.036
80.399
77.721
75.012
72.284
69.548
66.816
64.098
61.405
58.748
56.136
53.579
51.086
48.665
46.322
44.066
41.901
39.834
37.868
36.008
34.257
32.619
31.096
29.688
28.398
27.225
26.169
25.228
24.399
23.68
23.066
22.554
22.137
21.809
21.566
21.399
21.301
21.266
21.286
21.352
21.459
21.597
21.76
21.942
22.134
22.332
22.529
22.721
22.903
23.07
23.218
23.343
23.443
23.514
23.554
23.559
23.529
23.462
23.358
23.215
23.034
22.816
22.561
22.272
21.95
21.599
21.221
20.818
20.395
19.955
19.503
19.04
18.573
18.103
17.635
17.172
16.717
16.272
15.839
15.421
15.019
14.633
14.266
13.917
13.586
13.274
12.981
12.706
12.449
12.208
11.983
11.771
11.572
11.382
11.201
11.024
10.85
10.676
10.499
10.315
10.122
9.917
9.696
9.458
9.198
8.915
8.607
8.272
7.907
7.513
7.088
6.632
6.146
5.63
5.085
4.513
3.915
3.294
2.651
1.99
1.314
0.625
-0.072
-0.773
-1.475
-2.172
-2.861
-3.537
-4.194
-4.827
-5.432
-6.005
-6.539
-7.031
-7.476
-7.87
-8.209
-8.49
-8.709
-8.864
-8.952
-8.972
-8.922
-8.802
-8.611
-8.35
-8.019
-7.62
-7.156
-6.627
-6.037
-5.389
-4.686
-3.934
-3.135
-2.296
-1.421
-0.517
0.41
1.354
2.306
3.261
4.21
5.145
6.061
6.948
7.8
8.61
9.371
10.077
10.721
11.297
11.8
12.225
12.566
12.821
12.985
13.055
13.029
12.905
12.682
12.359
11.936
11.412
10.786
10.061
9.236
8.315
7.298
6.189
4.994
3.718
2.368
0.951
-0.525
-2.054
-3.626
-5.236
-6.876
-8.542
-10.228
-11.929
-13.639
-15.353
-17.064
-18.769
-20.464
-22.144
-23.802
-25.435
-27.037
-28.604
-30.136
-31.626
-33.066
-34.448
-35.759
-36.99
-38.137
-39.196
-40.162
-41.034
-41.817
-42.523
-43.18
-43.812
-44.448
-45.112
-45.821
-46.599
-47.466
-48.439
-49.539
-50.772
-52.129
-53.608
-55.209
-56.93
-58.759
-60.652
-62.514
-64.244
-65.732
-66.894
-67.663
-67.938
-67.69
-66.963
-65.86
-64.609
-63.452
-62.525
-61.928
-61.764
-61.872
-61.992
-61.847
-60.886
-58.649
-54.905
-49.497
-42.592
-34.959
-27.606
-21.647
-18.606
-19.837
-26.493
-39.582
-59.271
-84.79
-114.858
-147.757
-181.256
-213.059
-240.704
-261.858
-275.222
-280.42
-277.728
-268.028
-252.614
-233.163
-211.88
-190.891
-171.595
-154.814
-140.846
-129.622
-120.99
-114.459
-109.119
-104.184
-99.206
-94.019
-88.781
-83.735
-79.037
-74.918
-71.682
-69.495
-68.401
-68.317
-69.016
-70.251
-71.79
-73.435
-75.035
-76.49
-77.736
-78.71
-79.349
-79.611
-79.476
-78.938
-78.008
-76.701
-75.036
-73.063
-70.861
-68.521
-66.146
-63.805
-61.528
-59.339
-57.254
-55.292
-53.484
-51.842
-50.358
-49.031
-47.861
-46.846
-45.987
-45.267
-44.649
-44.099
-43.577
-43.055
-42.52
-41.958
-41.359
-40.716
-40.02
-39.271
-38.475
-37.633
-36.74
-35.792
-34.784
-33.716
-32.592
-31.414
-30.186
-28.911
-27.591
-26.227
-24.823
-23.378
-21.893
-20.363
-18.788
-17.166
-15.496
-13.778
-12.012
-10.2
-8.342
-6.439
-4.493
-2.507
-0.481
1.582
3.681
5.814
7.979
10.173
12.394
14.638
16.901
19.179
21.468
23.764
26.061
28.355
30.642
32.915
35.171
37.404
39.61
41.783
43.918
46.008
48.047
50.029
51.946
53.793
55.561
57.243
58.834
60.326
61.714
62.99
64.15
65.186
66.093
66.867
67.502
67.992
68.336
68.529
68.569
68.453
68.182
67.753
67.169
66.431
65.54
64.495
63.297
61.946
60.448
58.808
57.031
55.115
53.07
50.917
48.672
46.359
43.985
41.54
39.03
36.487
33.906
31.25
28.494
25.608
22.596
19.534
16.452
13.295
10.144
7.245
4.651
2.309
0.26
-1.75
-3.238
-2.738
-0.586
1.895
2.489
-2.981
-14.215
-27.005
-37.151
-38.702
-31.333
-20.657
-11.036
-7.136
-9.676
-14.582
-19.434
-22.397
-22.976
-22.909
-22.69
-23.015
-24.671
-26.375
-27.759
-27.162
-22.384
-15.913
-9.438
-5.477
-7.458
-12.343
-17.544
-21.264
-20.583
-17.607
-14.459
-11.609
-10.35
-9.935
-9.407
-8.958
-8.466
-7.995
-7.739
-7.57
-7.385
-7.217
-7.073
-6.94
-6.817
-6.71
-6.621
-6.566
-6.563
-6.601
-6.668
-6.764
-6.886
-7.031
-7.198
-7.382
-7.577
-7.784
-8
-8.223
-8.452
-8.685
-8.919
-9.152
-9.383
-9.611
-9.834
-10.051
-10.261
-10.463
-10.656
-10.841
-11.016
-11.181
-11.334
-11.477
-11.608
-11.726
-11.832
-11.924
-12.004
-12.07
-12.123
-12.162
-12.189
-12.203
-12.203
-12.191
-12.166
-12.127
-12.076
-12.013
-11.937
-11.85
-11.752
-11.644
-11.527
-11.403
-11.271
-11.134
-10.992
-10.847
-10.701
-10.554
-10.41
-10.268
-10.133
-10.005
-9.888
-9.783
-9.693
-9.62
-9.565
-9.531
-9.52
-9.532
-9.57
-9.634
-9.725
-9.845
-9.994
-10.172
-10.38
-10.616
-10.88
-11.171
-11.487
-11.827
-12.188
-12.568
-12.964
-13.374
-13.794
-14.222
-14.655
-15.088
-15.518
-15.942
-16.356
-16.754
-17.135
-17.493
-17.825
-18.128
-18.399
-18.635
-18.834
-18.994
-19.114
-19.193
-19.23
-19.225
-19.177
-19.089
-18.96
-18.793
-18.59
-18.355
-18.091
-17.802
-17.493
-17.167
-16.831
-16.489
-16.146
-15.808
-15.48
-15.167
-14.875
-14.611
-14.38
-14.187
-14.038
-13.938
-13.892
-13.905
-13.979
-14.117
-14.322
-14.597
-14.941
-15.355
-15.84
-16.393
-17.017
-17.709
-18.467
-19.288
-20.17
-21.108
-22.1
-23.139
-24.216
-25.325
-26.462
-27.621
-28.798
-29.986
-31.176
-32.361
-33.544
-34.714
-35.855
-36.948
-37.972
-38.916
-39.795
-40.607
-41.333
-41.994
-42.639
-43.31
-44.055
-44.882
-45.736
-46.597
-47.527
-48.445
-49.081
-49.38
-49.429
-49.202
-48.986
-48.264
-45.421
-40.805
-35.889
-33.096
-36.979
-47.228
-59.247
-68.477
-68.472
-58.873
-45.83
-34.087
-28.754
-30.71
-35.386
-39.991
-42.624
-42.721
-42.148
-41.76
-41.522
-41.524
-41.527
-41.462
-41.544
-41.82
-42.219
-42.732
-43.373
-44.12
-44.943
-45.804
-46.647
-47.453
-48.246
-49.017
-49.735
-50.373
-50.891
-51.282
-51.578
-51.794
-51.938
-52.016
-52.024
-51.968
-51.863
-51.714
-51.517
-51.265
-50.95
-50.573
-50.149
-49.689
-49.206
-48.703
-48.167
-47.591
-46.973
-46.31
-45.601
-44.843
-44.028
-43.154
-42.23
-41.261
-40.254
-39.213
-38.135
-37.021
-35.872
-34.692
-33.485
-32.254
-31.003
-29.734
-28.452
-27.161
-25.867
-24.572
-23.278
-21.984
-20.692
-19.404
-18.121
-16.845
-15.577
-14.32
-13.074
-11.844
-10.631
-9.438
-8.267
-7.12
-6
-4.908
-3.848
-2.821
-1.829
-0.875
0.04
0.913
1.742
2.525
3.262
3.95
4.59
5.18
5.721
6.211
6.651
7.042
7.382
7.673
7.914
8.107
8.253
8.351
8.404
8.414
8.381
8.309
8.2
8.058
7.885
7.684
7.46
7.217
6.958
6.687
6.41
6.13
5.852
5.58
5.32
5.075
4.849
4.646
4.469
4.323
4.208
4.128
4.085
4.079
4.113
4.186
4.299
4.452
4.643
4.873
5.139
5.441
5.774
6.138
6.528
6.942
7.376
7.825
8.285
8.751
9.218
9.679
10.131
10.567
10.981
11.368
11.722
12.038
12.31
12.532
12.699
12.806
12.848
12.822
12.725
12.556
12.313
11.998
11.61
11.153
10.628
10.036
9.381
8.664
7.888
7.053
6.164
5.224
4.237
3.205
2.133
1.028
-0.106
-1.26
-2.428
-3.604
-4.779
-5.945
-7.091
-8.206
-9.277
-10.289
-11.228
-12.083
-12.843
-13.496
-14.038
-14.468
-14.793
-15.031
-15.201
-15.321
-15.409
-15.485
-15.566
-15.671
-15.812
-16.001
-16.244
-16.54
-16.896
-17.32
-17.815
-18.366
-18.927
-19.414
-19.738
-19.827
-19.604
-18.978
-17.908
-16.392
-14.502
-12.427
-10.382
-8.534
-6.988
-5.775
-4.754
-3.7
-2.293
0.005
3.758
9.434
17.193
26.742
37.391
48.288
58.276
65.694
68.771
65.745
56.343
42.209
24.789
4.609
-20.354
-53.563
-94.815
-138.627
-174.441
-191.234
-184.356
-157.843
-123.087
-91.65
-69.781
-56.92
-46.967
-35.321
-21.794
-10.479
-7.598
-15.399
-30.491
-44.733
-49.256
-40.283
-20.475
2.142
19.406
27.553
27.662
24.54
22.183
21.943
23.301
24.465
24.69
24.304
23.651
23.118
22.711
22.193
21.55
20.85
20.1
19.325
18.548
17.799
17.175
16.751
16.542
16.548
16.737
17.067
17.503
17.99
18.48
18.949
19.38
19.769
20.122
20.437
20.714
20.954
21.146
21.281
21.358
21.371
21.328
21.247
21.146
21.054
20.997
20.99
21.046
21.17
21.361
21.62
21.945
22.328
22.766
23.259
23.805
24.405
25.058
25.758
26.5
27.275
28.075
28.89
29.715
30.542
31.368
32.187
32.998
33.798
34.589
35.369
36.136
36.889
37.626
38.346
39.048
39.731
40.396
41.041
41.668
42.278
42.873
43.455
44.026
44.588
45.143
45.693
46.241
46.789
47.338
47.891
48.448
49.012
49.584
50.166
50.758
51.361
51.976
52.602
53.239
53.885
54.538
55.196
55.856
56.513
57.166
57.808
58.437
59.046
59.631
60.188
60.709
61.191
61.626
62.009
62.333
62.594
62.785
62.901
62.937
62.887
62.748
62.516
62.188
61.761
61.232
60.6
59.863
59.022
58.077
57.027
55.876
54.625
53.277
51.836
50.308
48.697
47.01
45.252
43.432
41.556
39.632
37.67
35.676
33.66
31.631
29.598
27.57
25.555
23.564
21.604
19.684
17.812
15.996
14.243
12.558
10.95
9.422
7.981
6.63
5.374
4.216
3.158
2.202
1.35
0.601
-0.045
-0.589
-1.032
-1.378
-1.629
-1.789
-1.862
-1.853
-1.767
-1.609
-1.385
-1.1
-0.762
-0.376
0.05
0.512
1.001
1.511
2.038
2.574
3.114
3.652
4.184
4.704
5.208
5.691
6.149
6.579
6.978
7.343
7.672
7.962
8.212
8.422
8.591
8.718
8.805
8.851
8.857
8.825
8.756
8.652
8.515
8.348
8.153
7.931
7.687
7.422
7.139
6.841
6.529
6.206
5.873
5.534
5.189
4.841
4.491
4.14
3.79
3.441
3.095
2.751
2.411
2.073
1.739
1.408
1.08
0.754
0.43
0.107
-0.215
-0.539
-0.864
-1.192
-1.525
-1.863
-2.208
-2.561
-2.924
-3.296
-3.68
-4.075
-4.482
-4.902
-5.335
-5.781
-6.24
-6.711
-7.195
-7.69
-8.196
-8.711
-9.234
-9.763
-10.298
-10.835
-11.373
-11.911
-12.446
-12.976
-13.501
-14.017
-14.522
-15.016
-15.495
-15.958
-16.402
-16.827
-17.23
-17.611
-17.967
-18.298
-18.603
-18.882
-19.133
-19.357
-19.553
-19.721
-19.861
-19.975
-20.063
-20.125
-20.164
-20.18
-20.177
-20.155
-20.117
-20.065
-20.001
-19.927
-19.846
-19.758
-19.668
-19.575
-19.483
-19.394
-19.308
-19.228
-19.156
-19.091
-19.036
-18.992
-18.958
-18.935
-18.924
-18.925
-18.937
-18.961
-18.996
-19.042
-19.099
-19.165
-19.239
-19.321
-19.408
-19.501
-19.596
-19.692
-19.789
-19.883
-19.975
-20.063
-20.145
-20.22
-20.289
-20.349
-20.401
-20.444
-20.478
-20.503
-20.519
-20.527
-20.527
-20.522
-20.511
-20.497
-20.481
-20.464
-20.449
-20.436
-20.428
-20.427
-20.434
-20.451
-20.48
-20.524
-20.583
-20.66
-20.756
-20.874
-21.013
-21.176
-21.362
-21.573
-21.808
-22.067
-22.35
-22.655
-22.983
-23.332
-23.7
-24.085
-24.486
-24.899
-25.324
-25.755
-26.191
-26.628
-27.063
-27.492
-27.912
-28.32
-28.713
-29.086
-29.436
-29.761
-30.057
-30.32
-30.548
-30.739
-30.889
-30.996
-31.059
-31.077
-31.047
-30.971
-30.847
-30.676
-30.458
-30.194
-29.886
-29.535
-29.143
-28.711
-28.243
-27.74
-27.206
-26.644
-26.058
-25.449
-24.823
-24.183
-23.532
-22.875
-22.214
-21.554
-20.899
-20.252
-19.617
-18.998
-18.399
-17.822
-17.271
-16.749
-16.258
-15.8
-15.378
-14.992
-14.643
-14.333
-14.061
-13.828
-13.632
-13.474
-13.353
-13.266
-13.213
-13.193
-13.202
-13.24
-13.303
-13.389
-13.496
-13.62
-13.76
-13.91
-14.07
-14.234
-14.4
-14.564
-14.722
-14.872
-15.008
-15.127
-15.225
-15.299
-15.346
-15.36
-15.34
-15.283
-15.184
-15.042
-14.854
-14.618
-14.332
-13.993
-13.601
-13.153
-12.649
-12.087
-11.466
-10.786
-10.045
-9.244
-8.383
-7.461
-6.479
-5.437
-4.336
-3.176
-1.959
-0.686
0.642
2.022
3.454
4.935
6.463
8.034
9.646
11.296
12.979
14.692
16.431
18.191
19.967
21.756
23.552
25.35
27.146
28.934
30.71
32.467
34.2
35.904
37.573
39.202
40.786
42.319
43.796
45.213
46.564
47.846
49.053
50.18
51.223
52.177
53.037
53.8
54.463
55.023
55.478
55.827
56.072
56.213
56.252
56.191
56.031
55.776
55.429
54.993
54.47
53.863
53.177
52.415
51.582
50.682
49.718
48.694
47.616
46.491
45.327
44.131
42.911
41.677
40.44
39.215
38.014
36.853
35.743
34.697
33.729
32.851
32.069
31.385
30.788
30.263
29.794
29.359
28.938
28.508
28.042
27.524
26.941
26.281
25.543
24.711
23.762
22.697
21.535
20.304
19.079
17.94
16.956
16.252
15.957
16.129
16.776
17.805
19.015
20.258
21.434
22.39
23.026
23.415
23.803
24.701
26.742
30.357
35.799
43.277
52.774
63.857
75.628
86.694
95.49
100.672
101.032
95.399
82.984
63.71
38.31
8.208
-24.882
-59.085
-92.196
-121.666
-145.164
-161.162
-169.037
-168.774
-160.613
-145.388
-124.794
-101.334
-77.688
-55.855
-37.07
-22.279
-12.394
-7.726
-7.726
-10.978
-15.65
-20.463
-24.747
-27.915
-29.321
-28.614
-25.866
-21.71
-17.153
-12.808
-8.872
-5.479
-2.743
-0.739
0.508
1.206
1.759
2.392
3.164
4.074
5.058
6.096
7.215
8.386
9.531
10.601
11.56
12.399
13.139
13.773
14.289
14.68
14.94
15.075
15.104
15.039
14.898
14.697
14.448
14.159
13.841
13.499
13.142
12.78
12.419
12.069
11.739
11.438
11.178
10.966
10.808
10.707
10.664
10.68
10.756
10.895
11.098
11.367
11.701
12.101
12.567
13.099
13.694
14.349
15.061
15.823
16.633
17.484
18.374
19.297
20.25
21.227
22.226
23.243
24.275
25.317
26.367
27.422
28.478
29.533
30.585
31.629
32.664
33.689
34.7
35.696
36.675
37.636
38.577
39.496
40.393
41.266
42.114
42.935
43.728
44.493
45.228
45.933
46.608
47.251
47.862
48.44
48.983
49.49
49.96
50.39
50.778
51.122
51.42
51.668
51.866
52.01
52.098
52.127
52.096
52.002
51.843
51.618
51.325
50.963
50.531
50.028
49.456
48.813
48.1
47.319
46.47
45.555
44.575
43.533
42.432
41.273
40.059
38.794
37.481
36.124
34.727
33.295
31.833
30.346
28.838
27.315
25.783
24.247
22.712
21.184
19.668
18.168
16.691
15.24
13.819
12.432
11.083
9.775
8.51
7.291
6.118
4.994
3.921
2.898
1.927
1.008
0.141
-0.673
-1.435
-2.146
-2.805
-3.414
-3.973
-4.485
-4.95
-5.37
-5.747
-6.082
-6.379
-6.639
-6.864
-7.057
-7.219
-7.354
-7.462
-7.547
-7.609
-7.65
-7.671
-7.673
-7.657
-7.624
-7.575
-7.51
-7.429
-7.333
-7.223
-7.099
-6.962
-6.813
-6.653
-6.483
-6.304
-6.118
-5.925
-5.727
-5.526
-5.323
-5.12
-4.918
-4.72
-4.525
-4.336
-4.154
-3.98
-3.817
-3.664
-3.524
-3.399
-3.289
-3.197
-3.123
-3.069
-3.037
-3.028
-3.043
-3.082
-3.147
-3.238
-3.355
-3.497
-3.664
-3.856
-4.071
-4.307
-4.562
-4.836
-5.124
-5.424
-5.734
-6.05
-6.37
-6.691
-7.009
-7.321
-7.625
-7.917
-8.195
-8.457
-8.699
-8.919
-9.115
-9.285
-9.427
-9.539
-9.621
-9.671
-9.688
-9.673
-9.624
-9.543
-9.43
-9.285
-9.111
-8.909
-8.681
-8.43
-8.159
-7.869
-7.566
-7.252
-6.931
-6.606
-6.282
-5.963
-5.651
-5.351
-5.066
-4.8
-4.555
-4.334
-4.14
-3.974
-3.839
-3.735
-3.665
-3.628
-3.624
-3.654
-3.717
-3.811
-3.937
-4.091
-4.272
-4.477
-4.704
-4.95
-5.212
-5.485
-5.767
-6.054
-6.341
-6.625
-6.901
-7.166
-7.416
-7.647
-7.854
-8.035
-8.186
-8.305
-8.389
-8.435
-8.443
-8.41
-8.337
-8.223
-8.068
-7.873
-7.639
-7.368
-7.062
-6.723
-6.355
-5.96
-5.543
-5.107
-4.656
-4.194
-3.727
-3.258
-2.793
-2.335
-1.891
-1.464
-1.059
-0.681
-0.335
-0.024
0.247
0.474
0.655
0.787
0.866
0.891
0.861
0.774
0.63
0.429
0.171
-0.143
-0.511
-0.931
-1.401
-1.918
-2.478
-3.079
-3.716
-4.385
-5.082
-5.801
-6.54
-7.292
-8.052
-8.817
-9.58
-10.337
-11.082
-11.812
-12.521
-13.204
-13.858
-14.478
-15.061
-15.604
-16.104
-16.557
-16.963
-17.32
-17.626
-17.881
-18.084
-18.235
-18.334
-18.383
-18.383
-18.335
-18.242
-18.105
-17.926
-17.709
-17.457
-17.171
-16.856
-16.514
-16.149
-15.765
-15.366
-14.954
-14.534
-14.11
-13.684
-13.262
-12.845
-12.438
-12.042
-11.662
-11.298
-10.953
-10.63
-10.329
-10.053
-9.802
-9.578
-9.381
-9.211
-9.068
-8.953
-8.865
-8.804
-8.769
-8.759
-8.774
-8.812
-8.873
-8.956
-9.058
-9.179
-9.316
-9.469
-9.634
-9.81
-9.995
-10.186
-10.382
-10.582
-10.783
-10.983
-11.182
-11.378
-11.57
-11.756
-11.936
-12.109
-12.274
-12.43
-12.577
-12.715
-12.843
-12.963
-13.072
-13.173
-13.264
-13.346
-13.42
-13.485
-13.541
-13.59
-13.632
-13.668
-13.699
-13.727
-13.752
-13.777
-13.802
-13.828
-13.859
-13.893
-13.934
-13.981
-14.035
-14.099
-14.171
-14.254
-14.347
-14.452
-14.568
-14.697
-14.836
-14.988
-15.15
-15.324
-15.507
-15.7
-15.902
-16.112
-16.329
-16.553
-16.782
-17.014
-17.248
-17.482
-17.714
-17.94
-18.158
-18.364
-18.557
-18.732
-18.886
-19.018
-19.123
-19.2
-19.244
-19.253
-19.225
-19.156
-19.043
-18.885
-18.679
-18.423
-18.116
-17.755
-17.34
-16.871
-16.345
-15.764
-15.127
-14.433
-13.682
-12.875
-12.012
-11.095
-10.125
-9.105
-8.037
-6.926
-5.775
-4.589
-3.373
-2.131
-0.868
0.409
1.697
2.989
4.279
5.562
6.83
8.077
9.296
10.48
11.622
12.716
13.754
14.73
15.64
16.479
17.242
17.926
18.526
19.039
19.463
19.792
20.024
20.155
20.18
20.098
19.909
19.613
19.212
18.708
18.104
17.407
16.621
15.75
14.794
13.751
12.622
11.412
10.128
8.781
7.386
5.96
4.525
3.102
1.711
0.366
-0.929
-2.176
-3.377
-4.533
-5.634
-6.663
-7.608
-8.46
-9.218
-9.888
-10.487
-11.049
-11.619
-12.256
-13.017
-13.934
-15.007
-16.229
-17.58
-19.031
-20.594
-22.283
-24.072
-25.987
-28.088
-30.371
-32.821
-35.384
-37.847
-39.984
-41.703
-42.755
-42.721
-41.531
-39.311
-36.09
-32.437
-28.413
-22.571
-15.146
-7.913
-2.823
-4.737
-15.072
-28.102
-37.451
-34.128
-12.244
21.813
58.382
87.098
98.636
95.568
85.528
73.855
65.24
57.257
43.577
22.454
-6.385
-41.948
-80.341
-120.738
-162.63
-200.534
-231.145
-250.706
-255.081
-247.772
-231.912
-210.155
-187.809
-165.749
-143.897
-123.702
-104.592
-86.256
-70.434
-58.197
-50.75
-50.916
-57.939
-67.4
-73.498
-69.263
-52.16
-26.285
0.146
19.478
27.868
26.21
20.459
15.191
12.544
13.653
15.953
17.705
18.66
17.963
16.419
14.804
13.043
11.451
10.039
8.649
7.412
6.454
5.818
5.57
5.731
6.243
7.034
8.053
9.255
10.597
12.056
13.583
15.1
16.548
17.888
19.093
20.156
21.066
21.812
22.393
22.825
23.133
23.343
23.477
23.546
23.562
23.547
23.524
23.523
23.568
23.673
23.846
24.096
24.428
24.849
25.357
25.945
26.607
27.338
28.135
28.998
29.925
30.911
31.95
33.037
34.168
35.34
36.55
37.794
39.071
40.378
41.714
43.079
44.472
45.891
47.333
48.797
50.278
51.774
53.284
54.803
56.328
57.858
59.39
60.921
62.448
63.969
65.479
66.977
68.457
69.917
71.353
72.76
74.136
75.477
76.778
78.036
79.247
80.406
81.51
82.554
83.533
84.443
85.279
86.037
86.712
87.302
87.801
88.206
88.512
88.718
88.818
88.81
88.691
88.458
88.108
87.641
87.056
86.35
85.525
84.58
83.516
82.336
81.039
79.629
78.108
76.479
74.745
72.911
70.98
68.958
66.85
64.661
62.398
60.068
57.676
55.229
52.735
50.2
47.632
45.038
42.426
39.805
37.181
34.562
31.957
29.372
26.815
24.292
21.81
19.376
16.994
14.671
12.41
10.218
8.098
6.054
4.09
2.21
0.415
-1.293
-2.91
-4.437
-5.873
-7.217
-8.469
-9.63
-10.701
-11.682
-12.576
-13.385
-14.11
-14.755
-15.323
-15.818
-16.242
-16.6
-16.896
-17.134
-17.318
-17.453
-17.541
-17.589
-17.598
-17.574
-17.521
-17.442
-17.342
-17.224
-17.092
-16.949
-16.799
-16.645
-16.489
-16.335
-16.185
-16.04
-15.904
-15.777
-15.661
-15.558
-15.468
-15.392
-15.33
-15.283
-15.25
-15.232
-15.227
-15.234
-15.254
-15.285
-15.325
-15.374
-15.431
-15.494
-15.562
-15.634
-15.707
-15.782
-15.855
-15.926
-15.993
-16.055
-16.111
-16.158
-16.196
-16.223
-16.24
-16.244
-16.235
-16.213
-16.177
-16.127
-16.063
-15.985
-15.894
-15.789
-15.671
-15.541
-15.399
-15.246
-15.084
-14.913
-14.734
-14.548
-14.357
-14.161
-13.962
-13.762
-13.561
-13.36
-13.161
-12.966
-12.776
-12.591
-12.414
-12.246
-12.087
-11.938
-11.802
-11.677
-11.565
-11.466
-11.38
-11.307
-11.248
-11.201
-11.167
-11.145
-11.135
-11.137
-11.15
-11.173
-11.206
-11.248
-11.297
-11.354
-11.417
-11.486
-11.559
-11.635
-11.713
-11.793
-11.873
-11.951
-12.026
-12.098
-12.164
-12.223
-12.275
-12.317
-12.349
-12.371
-12.381
-12.38
-12.367
-12.341
-12.304
-12.253
-12.19
-12.115
-12.027
-11.927
-11.814
-11.688
-11.551
-11.403
-11.242
-11.071
-10.888
-10.695
-10.493
-10.28
-10.059
-9.829
-9.592
-9.348
-9.099
-8.846
-8.59
-8.332
-8.074
-7.817
-7.562
-7.31
-7.062
-6.818
-6.58
-6.348
-6.122
-5.904
-5.695
-5.493
-5.301
-5.119
-4.946
-4.785
-4.635
-4.497
-4.371
-4.258
-4.158
-4.072
-3.999
-3.942
-3.899
-3.871
-3.858
-3.859
-3.875
-3.904
-3.947
-4.001
-4.067
-4.143
-4.228
-4.322
-4.424
-4.533
-4.648
-4.768
-4.892
-5.02
-5.151
-5.284
-5.418
-5.552
-5.686
-5.819
-5.949
-6.077
-6.202
-6.321
-6.436
-6.544
-6.645
-6.737
-6.821
-6.894
-6.956
-7.007
-7.046
-7.073
-7.088
-7.091
-7.081
-7.06
-7.026
-6.981
-6.925
-6.858
-6.781
-6.693
-6.595
-6.489
-6.373
-6.249
-6.117
-5.978
-5.831
-5.678
-5.519
-5.353
-5.182
-5.006
-4.826
-4.643
-4.457
-4.271
-4.084
-3.898
-3.714
-3.534
-3.357
-3.186
-3.021
-2.862
-2.711
-2.567
-2.432
-2.306
-2.189
-2.081
-1.984
-1.897
-1.819
-1.753
-1.696
-1.65
-1.615
-1.591
-1.578
-1.577
-1.587
-1.61
-1.644
-1.691
-1.751
-1.822
-1.904
-1.997
-2.099
-2.211
-2.33
-2.456
-2.587
-2.723
-2.863
-3.005
-3.148
-3.292
-3.435
-3.577
-3.717
-3.853
-3.986
-4.114
-4.236
-4.353
-4.462
-4.565
-4.658
-4.742
-4.816
-4.876
-4.923
-4.954
-4.968
-4.962
-4.936
-4.887
-4.815
-4.719
-4.597
-4.448
-4.272
-4.068
-3.835
-3.574
-3.282
-2.959
-2.605
-2.219
-1.801
-1.35
-0.865
-0.346
0.208
0.796
1.42
2.079
2.774
3.506
4.272
5.074
5.909
6.775
7.67
8.591
9.536
10.499
11.478
12.47
13.469
14.474
15.479
16.482
17.477
18.461
19.43
20.38
21.305
22.201
23.063
23.887
24.667
25.399
26.079
26.701
27.261
27.757
28.186
28.543
28.827
29.036
29.168
29.222
29.196
29.089
28.902
28.634
28.288
27.868
27.375
26.814
26.189
25.502
24.754
23.946
23.072
22.128
21.118
20.049
18.929
17.778
16.613
15.449
14.31
13.214
12.173
11.196
10.282
9.429
8.644
7.938
7.332
6.842
6.465
6.186
5.974
5.781
5.556
5.241
4.762
4.056
3.086
1.838
0.32
-1.442
-3.444
-5.702
-8.22
-10.986
-13.952
-17.03
-20.122
-23.11
-25.832
-28.067
-29.617
-30.37
-30.366
-29.791
-28.857
-27.71
-26.49
-25.412
-24.588
-23.875
-22.83
-20.654
-16.541
-10.059
-0.94
11.119
26.04
43.138
61.085
77.726
90.757
98.521
99.302
91.169
73.03
44.597
7.424
-34.755
-79.506
-125.32
-171.329
-218.4
-262.798
-298.549
-320.846
-322.425
-303.486
-269.556
-225.338
-181.597
-144.14
-113.804
-93.173
-78.367
-67.087
-59.688
-53.492
-49.299
-47.523
-46.595
-46.702
-46.687
-44.989
-41.468
-36.132
-29.478
-22.576
-16.249
-10.843
-6.571
-3.639
-2.038
-1.655
-2.343
-3.708
-5.294
-6.873
-8.285
-9.396
-10.201
-10.67
-10.753
-10.491
-9.937
-9.114
-8.064
-6.816
-5.375
-3.792
-2.118
-0.403
1.279
2.877
4.361
5.689
6.845
7.819
8.597
9.178
9.572
9.785
9.831
9.733
9.504
9.167
8.75
8.284
7.807
7.35
6.933
6.574
6.286
6.077
5.957
5.933
6.003
6.168
6.43
6.789
7.248
7.809
8.469
9.224
10.069
11
12.014
13.109
14.282
15.53
16.852
18.244
19.707
21.239
22.836
24.494
26.208
27.973
29.783
31.633
33.515
35.422
37.349
39.289
41.235
43.182
45.123
47.051
48.961
50.847
52.702
54.522
56.301
58.035
59.719
61.349
62.923
64.436
65.887
67.272
68.588
69.834
71.008
72.107
73.129
74.073
74.936
75.719
76.419
77.036
77.569
78.017
78.38
78.658
78.851
78.96
78.983
78.921
78.774
78.544
78.229
77.83
77.348
76.782
76.134
75.403
74.59
73.695
72.718
71.659
70.518
69.296
67.992
66.607
65.141
63.596
61.973
60.272
58.495
56.645
54.724
52.733
50.677
48.558
46.379
44.145
41.86
39.528
37.154
34.743
32.301
29.832
27.344
24.842
22.333
19.822
17.316
14.823
12.348
9.898
7.481
5.104
2.773
0.496
-1.721
-3.871
-5.946
-7.942
-9.851
-11.667
-13.387
-15.004
-16.515
-17.915
-19.202
-20.373
-21.426
-22.359
-23.173
-23.867
-24.442
-24.898
-25.239
-25.466
-25.583
-25.592
-25.499
-25.307
-25.021
-24.645
-24.186
-23.649
-23.04
-22.363
-21.627
-20.837
-20
-19.123
-18.213
-17.276
-16.321
-15.353
-14.38
-13.408
-12.444
-11.493
-10.561
-9.655
-8.778
-7.936
-7.133
-6.372
-5.657
-4.99
-4.373
-3.809
-3.298
-2.841
-2.439
-2.092
-1.799
-1.56
-1.376
-1.244
-1.166
-1.138
-1.161
-1.233
-1.352
-1.515
-1.72
-1.966
-2.249
-2.566
-2.916
-3.294
-3.697
-4.124
-4.57
-5.032
-5.507
-5.993
-6.485
-6.982
-7.48
-7.977
-8.471
-8.961
-9.443
-9.918
-10.383
-10.838
-11.282
-11.713
-12.129
-12.531
-12.917
-13.286
-13.637
-13.971
-14.285
-14.58
-14.857
-15.114
-15.352
-15.572
-15.773
-15.956
-16.122
-16.272
-16.407
-16.529
-16.638
-16.737
-16.828
-16.913
-16.994
-17.072
-17.149
-17.227
-17.308
-17.392
-17.481
-17.575
-17.678
-17.788
-17.909
-18.04
-18.182
-18.338
-18.507
-18.689
-18.886
-19.097
-19.323
-19.564
-19.819
-20.09
-20.374
-20.673
-20.985
-21.31
-21.646
-21.993
-22.347
-22.708
-23.073
-23.439
-23.805
-24.168
-24.525
-24.875
-25.215
-25.542
-25.856
-26.153
-26.433
-26.693
-26.932
-27.149
-27.342
-27.512
-27.656
-27.776
-27.87
-27.94
-27.986
-28.007
-28.005
-27.981
-27.934
-27.867
-27.78
-27.676
-27.554
-27.419
-27.271
-27.114
-26.951
-26.783
-26.616
-26.45
-26.29
-26.139
-25.999
-25.874
-25.766
-25.678
-25.612
-25.57
-25.554
-25.565
-25.605
-25.674
-25.772
-25.899
-26.055
-26.24
-26.452
-26.689
-26.952
-27.237
-27.544
-27.87
-28.214
-28.574
-28.946
-29.329
-29.72
-30.116
-30.513
-30.908
-31.299
-31.681
-32.052
-32.407
-32.744
-33.06
-33.352
-33.617
-33.853
-34.058
-34.23
-34.368
-34.471
-34.539
-34.571
-34.568
-34.53
-34.459
-34.357
-34.224
-34.063
-33.875
-33.663
-33.429
-33.175
-32.902
-32.615
-32.314
-32.003
-31.684
-31.359
-31.033
-30.708
-30.387
-30.072
-29.766
-29.473
-29.194
-28.933
-28.691
-28.47
-28.272
-28.099
-27.951
-27.83
-27.737
-27.67
-27.631
-27.618
-27.629
-27.665
-27.723
-27.802
-27.9
-28.016
-28.148
-28.295
-28.454
-28.624
-28.804
-28.991
-29.183
-29.378
-29.575
-29.771
-29.964
-30.151
-30.33
-30.498
-30.654
-30.794
-30.915
-31.015
-31.09
-31.138
-31.156
-31.142
-31.092
-31.005
-30.879
-30.711
-30.501
-30.246
-29.945
-29.597
-29.201
-28.755
-28.258
-27.709
-27.106
-26.449
-25.736
-24.967
-24.141
-23.256
-22.312
-21.31
-20.249
-19.129
-17.95
-16.715
-15.425
-14.083
-12.692
-11.255
-9.777
-8.262
-6.716
-5.144
-3.551
-1.943
-0.327
1.292
2.907
4.512
6.099
7.662
9.195
10.691
12.142
13.543
14.887
16.167
17.376
18.509
19.558
20.517
21.379
22.139
22.79
23.329
23.75
24.052
24.233
24.296
24.241
24.07
23.787
23.396
22.901
22.307
21.618
20.838
19.974
19.031
18.018
16.942
15.811
14.633
13.414
12.164
10.891
9.603
8.306
7.009
5.725
4.472
3.27
2.139
1.094
0.149
-0.683
-1.391
-1.97
-2.422
-2.762
-3.006
-3.167
-3.262
-3.303
-3.313
-3.323
-3.365
-3.477
-3.685
-3.994
-4.416
-4.957
-5.609
-6.362
-7.178
-7.97
-8.665
-9.188
-9.458
-9.43
-9.01
-8.038
-6.435
-4.185
-1.355
1.848
5.306
9.014
12.785
16.315
19.497
22.299
25.03
28.356
32.487
37.443
43.664
51.559
61.093
71.279
79.672
83.522
81.859
76.696
70.972
66.463
62.137
50.995
25.378
-19.88
-86.468
-165.402
-243.546
-306.679
-340.624
-343.113
-318.578
-276.206
-230.623
-189.214
-154.566
-127.021
-102.032
-78.148
-57.157
-40.306
-29.336
-24.359
-23.128
-23.274
-23.332
-22.367
-19.736
-15.26
-8.978
-1.168
7.239
15.08
21.756
26.949
30.422
32.244
32.528
31.434
29.402
26.969
24.478
22.149
20.14
18.478
17.205
16.391
16.016
16.022
16.375
17.031
17.959
19.164
20.606
22.19
23.875
25.638
27.435
29.254
31.05
32.718
34.228
35.637
36.858
37.647
37.967
37.901
37.438
36.876
35.712
32.46
27.532
22.334
19.252
22.65
32.13
43.399
52.12
52.134
43.265
31.302
20.7
16.337
18.896
24.038
29.153
32.396
33.276
33.565
34.021
34.591
35.327
35.957
36.42
36.953
37.621
38.383
39.246
40.221
41.294
42.453
43.672
44.906
46.141
47.392
48.66
49.939
51.229
52.523
53.821
55.126
56.436
57.747
59.055
60.358
61.652
62.937
64.21
65.468
66.709
67.932
69.133
70.311
71.464
72.589
73.682
74.742
75.766
76.751
77.692
78.588
79.435
80.229
80.968
81.648
82.266
82.818
83.3
83.708
84.04
84.292
84.459
84.54
84.53
84.427
84.229
83.933
83.537
83.041
82.442
81.741
80.937
80.03
79.021
77.91
76.701
75.394
73.994
72.502
70.924
69.263
67.524
65.714
63.836
61.899
59.908
57.872
55.797
53.691
51.563
49.421
47.275
45.131
43
40.889
38.808
36.764
34.765
32.819
30.934
29.117
27.375
25.714
24.14
22.658
21.274
19.991
18.813
17.744
16.787
15.942
15.212
14.598
14.101
13.719
13.452
13.299
13.256
13.323
13.494
13.767
14.137
14.599
15.147
15.777
16.483
17.258
18.097
18.993
19.94
20.932
21.961
23.022
24.109
25.215
26.334
27.46
28.589
29.715
30.833
31.937
33.024
34.089
35.127
36.134
37.107
38.043
38.937
39.788
40.594
41.352
42.061
42.721
43.329
43.887
44.393
44.849
45.254
45.61
45.917
46.176
46.39
46.559
46.687
46.773
46.821
46.832
46.809
46.752
46.663
46.545
46.399
46.227
46.031
45.814
45.578
45.324
45.056
44.775
44.483
44.183
43.877
43.565
43.251
42.935
42.619
42.304
41.992
41.684
41.38
41.082
40.79
40.504
40.225
39.953
39.688
39.431
39.182
38.94
38.708
38.484
38.27
38.067
37.874
37.692
37.521
37.362
37.214
37.078
36.953
36.839
36.736
36.645
36.565
36.496
36.438
36.39
36.354
36.327
36.312
36.306
36.311
36.326
36.352
36.388
36.434
36.491
36.558
36.635
36.721
36.816
36.918
37.027
37.141
37.259
37.379
37.5
37.621
37.739
37.853
37.962
38.063
38.156
38.238
38.308
38.364
38.404
38.426
38.428
38.409
38.367
38.299
38.205
38.082
37.929
37.744
37.525
37.27
36.98
36.652
36.285
35.88
35.435
34.952
34.431
33.871
33.274
32.641
31.974
31.272
30.538
29.773
28.979
28.157
27.309
26.437
25.542
24.627
23.694
22.744
21.781
20.806
19.821
18.83
17.835
16.837
15.841
14.848
13.861
12.882
11.914
10.957
10.015
9.088
8.178
7.285
6.412
5.557
4.722
3.908
3.113
2.339
1.585
0.852
0.139
-0.554
-1.226
-1.877
-2.509
-3.12
-3.711
-4.284
-4.837
-5.373
-5.892
-6.396
-6.885
-7.362
-7.827
-8.282
-8.73
-9.171
-9.608
-10.041
-10.472
-10.903
-11.335
-11.768
-12.204
-12.643
-13.087
-13.536
-13.99
-14.45
-14.917
-15.391
-15.872
-16.361
-16.86
-17.368
-17.885
-18.413
-18.95
-19.498
-20.055
-20.622
-21.196
-21.777
-22.363
-22.951
-23.54
-24.126
-24.708
-25.281
-25.843
-26.39
-26.918
-27.424
-27.905
-28.356
-28.775
-29.156
-29.496
-29.792
-30.04
-30.236
-30.377
-30.458
-30.477
-30.429
-30.311
-30.12
-29.852
-29.504
-29.073
-28.558
-27.957
-27.267
-26.487
-25.618
-24.66
-23.614
-22.48
-21.262
-19.962
-18.584
-17.132
-15.612
-14.027
-12.385
-10.69
-8.951
-7.174
-5.367
-3.538
-1.694
0.155
2.001
3.835
5.647
7.428
9.169
10.86
12.491
14.053
15.538
16.935
18.237
19.434
20.517
21.48
22.314
23.015
23.575
23.992
24.262
24.384
24.361
24.192
23.881
23.431
22.844
22.126
21.28
20.31
19.22
18.018
16.711
15.306
13.814
12.241
10.597
8.889
7.129
5.326
3.49
1.63
-0.243
-2.113
-3.958
-5.752
-7.472
-9.103
-10.631
-12.04
-13.316
-14.449
-15.436
-16.29
-17.025
-17.651
-18.18
-18.618
-18.982
-19.307
-19.629
-19.992
-20.419
-20.91
-21.468
-22.107
-22.836
-23.665
-24.567
-25.459
-26.26
-26.899
-27.289
-27.375
-27.046
-26.11
-24.477
-22.16
-19.276
-16.14
-13.013
-9.986
-7.27
-5.153
-3.619
-2.493
-1.284
1.019
5.15
11.459
20.396
32.139
46.108
61.257
75.889
87.574
94.185
93.843
84.544
64.901
35.526
-1.309
-43.027
-87.094
-134.018
-185.812
-241.218
-296.135
-340.875
-364.259
-361.196
-331.863
-286.432
-239.696
-201.453
-178.404
-167.636
-159.866
-149.73
-133.253
-111.503
-90.302
-72.617
-59.962
-52.326
-47.552
-44.535
-42.725
-41.635
-41.175
-40.841
-40.177
-39.041
-37.347
-35.334
-33.467
-31.952
-30.93
-30.589
-30.886
-31.747
-33.095
-34.632
-36.013
-37.041
-37.587
-37.601
-37.137
-36.231
-34.917
-33.292
-31.465
-29.54
-27.617
-25.761
-24.022
-22.446
-21.08
-19.986
-19.214
-18.794
-18.742
-19.05
-19.706
-20.697
-21.996
-23.562
-25.343
-27.276
-29.308
-31.402
-33.528
-35.676
-37.819
-39.904
-41.889
-43.726
-45.396
-46.928
-48.34
-49.63
-50.855
-52.1
-53.475
-55.141
-57.126
-59.314
-61.542
-63.606
-65.298
-66.406
-66.936
-67.058
-66.894
-66.899
-66.901
-65.807
-64.264
-63.693
-66.375
-76.706
-93.686
