Name,Enes Ozkan
Date of Birth,"5 Nov 2001"
Recorded Date,2023-04-14 12:34:31 +0000
Classification,Sinus Rhythm
Symptoms,
Software Version,1.90
Device,"Watch6,14"
Sample Rate,512 hertz


Lead,Lead I
Unit,µV

-1.359
1.944
5.156
8.257
11.232
14.07
16.759
19.29
21.655
23.849
25.865
27.7
29.352
30.819
32.1
33.195
34.109
34.847
35.415
35.819
36.067
36.168
36.131
35.969
35.694
35.316
34.852
34.325
33.761
33.195
32.654
32.164
31.747
31.427
31.222
31.145
31.195
31.354
31.606
31.935
32.323
32.752
33.189
33.586
33.891
34.058
34.066
33.905
33.555
32.992
32.199
31.191
30.035
28.847
27.722
26.735
25.964
25.53
25.643
26.497
28.139
30.435
33.118
35.964
38.846
41.604
43.888
45.378
46.123
46.673
47.926
50.63
55.381
62.804
73.418
87.593
103.811
118.362
129.041
134.612
135.807
136.068
132.142
116.684
83.575
25.964
-51.911
-137.87
-222.748
-297.247
-360.788
-417.135
-463.205
-493.576
-496.247
-462.302
-396.995
-313.799
-235.348
-180.747
-153.883
-149.007
-152.239
-150.805
-140.975
-124.928
-108.36
-95.401
-86.512
-79.827
-72.172
-62.151
-50.116
-36.97
-24.353
-13.452
-4.571
2.018
6.107
7.796
7.247
4.746
0.822
-3.99
-9.346
-14.94
-20.457
-25.679
-30.419
-34.531
-37.978
-40.759
-42.845
-44.214
-44.876
-44.86
-44.242
-43.123
-41.565
-39.639
-37.429
-35.042
-32.618
-30.284
-28.119
-26.169
-24.47
-23.047
-21.922
-21.098
-20.545
-20.218
-20.075
-20.077
-20.194
-20.391
-20.621
-20.83
-20.957
-20.956
-20.799
-20.464
-19.934
-19.195
-18.236
-17.056
-15.666
-14.076
-12.291
-10.314
-8.145
-5.788
-3.252
-0.546
2.319
5.339
8.506
11.816
15.261
18.836
22.534
26.352
30.286
34.331
38.477
42.716
47.036
51.426
55.875
60.37
64.897
69.445
74
78.55
83.082
87.581
92.036
96.431
100.753
104.988
109.123
113.142
117.032
120.78
124.374
127.799
131.044
134.096
136.943
139.574
141.978
144.145
146.065
147.729
149.13
150.261
151.117
151.695
151.989
151.999
151.724
151.164
150.32
149.195
147.793
146.117
144.174
141.969
139.511
136.809
133.871
130.709
127.333
123.757
119.995
116.06
111.967
107.731
103.367
98.891
94.321
89.672
84.961
80.206
75.423
70.629
65.842
61.077
56.352
51.68
47.076
42.554
38.126
33.803
29.597
25.515
21.568
17.763
14.109
10.615
7.287
4.132
1.154
-1.649
-4.278
-6.736
-9.028
-11.158
-13.132
-14.955
-16.63
-18.159
-19.538
-20.769
-21.853
-22.803
-23.627
-24.331
-24.917
-25.382
-25.723
-25.944
-26.046
-26.025
-25.875
-25.585
-25.158
-24.615
-23.982
-23.288
-22.553
-21.777
-20.973
-20.165
-19.398
-18.749
-18.265
-17.939
-17.76
-17.684
-17.691
-17.862
-18.166
-18.43
-18.585
-18.612
-18.627
-19.034
-20.07
-21.525
-23.349
-25.689
-28.2
-30.464
-32.006
-31.483
-28.821
-25.857
-22.365
-17.332
-9.013
7.102
29.49
51.188
65.665
64.839
48.553
25.014
1.294
-15.452
-23.179
-25.873
-26.127
-25.916
-25.817
-24.674
-21.696
-16.757
-11.597
-7.369
-6.548
-11.698
-19.484
-27.192
-31.176
-27.037
-18.43
-9.04
-0.696
5.114
11.56
19.619
24.928
20.502
0.937
-29.876
-58.876
-70.165
-53.162
-13.484
30.586
61.015
64.986
45.419
18.165
-4.378
-13.566
-9.332
-0.375
8.243
14.019
16.32
17.9
19.804
21.622
23.386
24.74
25.548
26.148
26.664
27.07
27.438
27.823
28.2
28.528
28.771
28.873
28.817
28.629
28.312
27.86
27.276
26.563
25.728
24.786
23.75
22.626
21.427
20.166
18.856
17.516
16.161
14.808
13.471
12.163
10.903
9.711
8.608
7.61
6.733
5.991
5.396
4.967
4.722
4.66
4.778
5.082
5.578
6.295
7.276
8.521
10.016
11.801
13.908
16.353
19.162
22.286
25.625
29.179
32.976
36.835
40.558
44.206
47.705
50.969
54.319
56.697
57.107
56.939
56.596
58.674
66.272
75.984
85.612
91.818
89.999
84.404
78.593
75.092
78.066
84.709
92.083
99.353
104.324
107.687
110.592
112.498
113.377
113.248
112.076
110.828
110.896
113.103
118.046
126.112
136.902
149.505
162.605
173.722
179.88
178.531
167.243
144.552
110.584
66.263
13.512
-44.176
-102.85
-158.396
-206.322
-243.438
-268.22
-279.98
-279.293
-268.062
-248.482
-223.348
-196.156
-169.434
-144.698
-122.98
-104.408
-88.512
-74.84
-62.503
-50.156
-37.044
-22.872
-7.544
8.569
24.967
41.271
56.907
71.17
83.703
94.341
103.023
109.902
115.115
118.772
121.117
122.417
122.849
122.573
121.716
120.373
118.73
116.959
115.191
113.569
112.18
111.084
110.353
110.021
110.087
110.537
111.319
112.37
113.655
115.135
116.758
118.468
120.171
121.793
123.293
124.628
125.777
126.729
127.475
128.026
128.42
128.691
128.88
129.034
129.183
129.364
129.622
130.001
130.557
131.332
132.353
133.643
135.218
137.087
139.258
141.726
144.476
147.492
150.758
154.262
157.992
161.932
166.06
170.353
174.783
179.331
183.98
188.697
193.451
198.215
202.955
207.659
212.324
216.915
221.396
225.777
230.059
234.24
238.33
242.282
246.025
249.569
252.947
256.011
258.592
260.77
262.526
263.819
264.98
265.091
263.262
260.753
257.942
257.149
261.151
266.872
272.266
274.282
268.733
259.33
249.223
240.572
236.945
235.805
234.583
232.717
228.646
223.294
217.85
212.102
206.215
200.126
193.611
186.843
179.96
172.939
165.786
158.531
151.188
143.762
136.265
128.69
121.026
113.301
105.539
97.754
89.962
82.178
74.414
66.69
59.022
51.423
43.906
36.484
29.168
21.971
14.904
7.98
1.207
-5.405
-11.847
-18.112
-24.191
-30.079
-35.77
-41.259
-46.542
-51.617
-56.48
-61.13
-65.565
-69.785
-73.79
-77.582
-81.163
-84.535
-87.701
-90.667
-93.436
-96.015
-98.408
-100.622
-102.664
-104.54
-106.257
-107.822
-109.244
-110.529
-111.686
-112.723
-113.649
-114.471
-115.198
-115.837
-116.399
-116.889
-117.315
-117.686
-118.008
-118.289
-118.535
-118.752
-118.949
-119.129
-119.3
-119.467
-119.634
-119.807
-119.99
-120.186
-120.4
-120.634
-120.892
-121.177
-121.492
-121.838
-122.219
-122.636
-123.091
-123.584
-124.117
-124.69
-125.302
-125.952
-126.64
-127.365
-128.124
-128.917
-129.741
-130.593
-131.472
-132.375
-133.297
-134.235
-135.186
-136.144
-137.106
-138.066
-139.019
-139.962
-140.887
-141.792
-142.669
-143.514
-144.32
-145.082
-145.793
-146.447
-147.038
-147.56
-148.008
-148.377
-148.661
-148.857
-148.96
-148.968
-148.876
-148.682
-148.383
-147.978
-147.463
-146.839
-146.104
-145.258
-144.304
-143.243
-142.079
-140.815
-139.455
-138.004
-136.469
-134.854
-133.168
-131.416
-129.606
-127.747
-125.851
-123.929
-121.991
-120.048
-118.107
-116.184
-114.297
-112.444
-110.629
-108.853
-107.115
-105.435
-103.841
-102.326
-100.882
-99.556
-98.384
-97.398
-96.64
-96.083
-95.669
-95.425
-95.407
-95.457
-95.389
-95.306
-95.19
-95.002
-95.129
-94.519
-92.144
-89.463
-86.909
-87.156
-93.412
-102.109
-110.872
-116.166
-113.131
-106.056
-98.577
-93.19
-94.007
-98.069
-102.361
-106.182
-107.68
-107.892
-108.165
-108.245
-108.301
-108.231
-107.741
-106.98
-106.092
-105.061
-103.918
-102.742
-101.582
-100.441
-99.375
-98.479
-97.745
-97.156
-96.568
-95.638
-94.228
-92.429
-90.336
-88.096
-85.932
-84.019
-82.817
-83.105
-85.188
-88.931
-94.031
-99.88
-105.867
-111.499
-115.976
-118.237
-117.646
-113.928
-106.933
-96.876
-84.275
-69.448
-52.651
-34.636
-16.176
0.787
12.652
18.045
17.244
11.839
5.985
-2.439
-19.069
-47.558
-94.579
-157.764
-229.284
-306.987
-382.437
-450.426
-508.56
-544.094
-550.345
-524.69
-467.602
-394.697
-322.422
-264.731
-231.951
-221.087
-224.105
-230.94
-232.149
-225.433
-212.382
-197.225
-184.01
-173.369
-163.951
-153.446
-140.724
-126.633
-112.754
-100.414
-90.031
-81.405
-74.404
-69.133
-65.612
-63.551
-62.332
-61.361
-60.359
-59.262
-58.081
-56.758
-55.144
-53.108
-50.639
-47.773
-44.541
-40.963
-37.014
-32.684
-28.046
-23.222
-18.365
-13.63
-9.106
-4.835
-0.86
2.788
6.065
8.923
11.346
13.347
14.926
16.091
16.845
17.188
17.155
16.805
16.203
15.422
14.513
13.509
12.441
11.338
10.223
9.122
8.045
6.996
5.988
5.037
4.162
3.383
2.714
2.162
1.733
1.432
1.265
1.242
1.369
1.652
2.102
2.728
3.54
4.551
5.769
7.2
8.848
10.713
12.797
15.097
17.611
20.335
23.264
26.391
29.71
33.214
36.895
40.742
44.744
48.889
53.163
57.55
62.034
66.596
71.219
75.883
80.568
85.254
89.919
94.544
99.105
103.583
107.955
112.198
116.292
120.214
123.944
127.461
130.747
133.783
136.553
139.042
141.235
143.122
144.691
145.932
146.838
147.402
147.621
147.491
147.012
146.186
145.015
143.507
141.67
139.513
137.049
134.292
131.258
127.964
124.429
120.675
116.722
112.593
108.313
103.907
99.401
94.821
90.193
85.545
80.901
76.288
71.732
67.256
62.884
58.639
54.541
50.612
46.869
43.331
40.013
36.929
34.093
31.514
29.201
27.16
25.396
23.911
22.705
21.777
21.123
20.738
20.615
20.746
21.119
21.723
22.545
23.571
24.785
26.17
27.711
29.39
31.189
33.091
35.078
37.134
39.242
41.386
43.549
45.716
47.873
50.006
52.102
54.148
56.133
58.048
59.884
61.632
63.287
64.843
66.296
67.643
68.882
70.013
71.036
71.952
72.764
73.475
74.09
74.614
75.052
75.41
75.696
75.914
76.073
76.178
76.237
76.255
76.24
76.197
76.132
76.05
75.957
75.858
75.757
75.66
75.569
75.489
75.424
75.375
75.345
75.337
75.353
75.392
75.457
75.547
75.663
75.805
75.973
76.165
76.382
76.622
76.885
77.171
77.478
77.806
78.155
78.526
78.918
79.334
79.773
80.237
80.728
81.248
81.798
82.381
82.997
83.648
84.337
85.065
85.832
86.641
87.492
88.388
89.329
90.316
91.35
92.433
93.564
94.745
95.975
97.253
98.578
99.948
101.361
102.815
104.306
105.829
107.38
108.954
110.545
112.145
113.748
115.346
116.929
118.491
120.022
121.514
122.957
124.345
125.668
126.92
128.093
129.181
130.178
131.076
131.869
132.55
133.114
133.555
133.868
134.049
134.095
134.006
133.783
133.428
132.942
132.329
131.592
130.736
129.764
128.68
127.487
126.192
124.8
123.322
121.765
120.138
118.448
116.707
114.923
113.104
111.259
109.393
107.511
105.626
103.752
101.906
100.113
98.389
96.744
95.193
93.746
92.407
91.178
90.046
88.979
87.961
86.968
85.978
84.98
83.941
82.819
81.592
80.238
78.752
77.143
75.402
73.494
71.424
69.232
66.954
64.624
62.289
60.009
57.871
56.051
54.744
53.933
53.681
54.182
55.171
56.219
57.178
57.438
57.332
58.86
61.785
64.889
66.348
61.626
51.847
43.191
41.449
53.752
79.195
108.548
133.104
144.053
138.347
119.101
88.496
49.341
3.384
-49.169
-105.345
-161.512
-214.001
-258.066
-290.759
-311.077
-318.312
-312.947
-296.705
-271.118
-238.602
-202.756
-166.245
-130.949
-98.837
-71.269
-49.098
-33.345
-24.017
-19.972
-20.272
-23.996
-29.808
-36.406
-42.605
-47.099
-49.194
-48.888
-46.238
-41.494
-35.26
-28.268
-21.127
-14.421
-8.489
-3.369
0.914
4.428
7.4
10.125
12.791
15.498
18.255
20.966
23.568
26.007
28.197
30.042
31.474
32.468
33.043
33.253
33.138
32.72
32.016
31.045
29.838
28.43
26.843
25.097
23.207
21.194
19.084
16.906
14.682
12.43
10.167
7.908
5.674
3.484
1.359
-0.682
-2.623
-4.448
-6.14
-7.683
-9.061
-10.262
-11.273
-12.084
-12.687
-13.073
-13.236
-13.173
-12.882
-12.364
-11.619
-10.65
-9.458
-8.049
-6.428
-4.601
-2.573
-0.353
2.049
4.623
7.356
10.235
13.247
16.375
19.603
22.914
26.289
29.709
33.156
36.61
40.049
43.455
46.808
50.086
53.271
56.344
59.285
62.077
64.703
67.146
69.39
71.422
73.228
74.794
76.108
77.159
77.939
78.437
78.646
78.559
78.173
77.483
76.487
75.187
73.582
71.676
69.474
66.983
64.21
61.165
57.86
54.306
50.518
46.511
42.3
37.903
33.338
28.623
23.777
18.82
13.772
8.654
3.486
-1.71
-6.915
-12.108
-17.267
-22.373
-27.406
-32.347
-37.178
-41.88
-46.438
-50.834
-55.055
-59.087
-62.917
-66.534
-69.929
-73.094
-76.022
-78.709
-81.151
-83.346
-85.294
-86.995
-88.453
-89.67
-90.651
-91.401
-91.929
-92.242
-92.349
-92.261
-91.988
-91.542
-90.936
-90.183
-89.297
-88.29
-87.177
-85.972
-84.688
-83.341
-81.945
-80.513
-79.059
-77.598
-76.141
-74.703
-73.294
-71.925
-70.608
-69.352
-68.166
-67.057
-66.033
-65.1
-64.265
-63.531
-62.903
-62.385
-61.978
-61.683
-61.501
-61.43
-61.468
-61.612
-61.86
-62.207
-62.647
-63.175
-63.785
-64.47
-65.225
-66.042
-66.908
-67.811
-68.74
-69.681
-70.629
-71.575
-72.503
-73.413
-74.313
-75.203
-76.094
-76.986
-77.837
-78.614
-79.304
-79.842
-80.148
-80.188
-79.912
-79.294
-78.441
-77.463
-76.393
-75.45
-74.991
-74.985
-75.267
-75.901
-76.364
-76.933
-79.332
-82.922
-85.928
-85.646
-75.464
-54.04
-27.105
-2.227
6.918
-7.451
-39.225
-78.547
-109.71
-120.012
-111.45
-89.083
-59.442
-29.699
0.93
30.072
48.973
50.417
27.388
-16.384
-63.845
-97.501
-104.028
-82.913
-47.806
-14.746
4.436
6.71
-2.026
-13.633
-22.808
-27.984
-30.474
-32.446
-34.681
-36.978
-39.093
-40.803
-42.245
-43.739
-45.404
-47.258
-49.336
-51.621
-54.043
-56.527
-58.988
-61.358
-63.62
-65.77
-67.789
-69.66
-71.373
-72.925
-74.319
-75.552
-76.611
-77.477
-78.13
-78.57
-78.815
-78.885
-78.809
-78.593
-78.214
-77.668
-76.967
-76.119
-75.164
-74.088
-72.792
-71.323
-69.84
-68.487
-67.462
-66.767
-66.116
-65.41
-64.763
-64.022
-62.9
-61.059
-57.935
-53.537
-48.562
-43.389
-38.12
-33.09
-28.623
-25.211
-23.737
-24.269
-25.994
-28.421
-31.257
-34.16
-37.009
-39.439
-40.692
-40.675
-39.955
-38.902
-37.824
-36.925
-36.124
-35.532
-35.501
-36.074
-37.029
-38.205
-39.417
-40.585
-41.806
-43.088
-44.36
-45.606
-46.834
-48.051
-49.294
-50.556
-51.79
-52.961
-54.041
-55.01
-55.857
-56.569
-57.127
-57.517
-57.722
-57.737
-57.561
-57.209
-56.714
-56.114
-55.448
-54.762
-54.092
-53.485
-52.975
-52.583
-52.338
-52.269
-52.404
-52.786
-53.433
-54.316
-55.404
-56.619
-57.835
-58.951
-59.799
-60.154
-59.918
-59.089
-57.793
-56.33
-54.93
-53.654
-52.661
-52.188
-52.145
-52.207
-51.692
-49.488
-44.816
-37.401
-26.951
-13.26
3.106
20.985
38.488
52.811
61.565
63.03
55.394
37.216
8.368
-30.268
-76.614
-127.145
-178.479
-227.536
-270.749
-304.991
-328.442
-340.25
-340.88
-332.206
-316.176
-294.895
-271.138
-247.339
-225.161
-205.743
-189.34
-175.449
-163.577
-153.006
-142.657
-131.778
-119.992
-107.151
-93.521
-79.57
-65.696
-52.427
-40.378
-29.916
-21.215
-14.317
-9.101
-5.416
-3.119
-1.993
-1.772
-2.244
-3.232
-4.576
-6.136
-7.767
-9.322
-10.669
-11.695
-12.307
-12.443
-12.06
-11.141
-9.692
-7.745
-5.352
-2.581
0.493
3.793
7.232
10.705
14.125
17.428
20.553
23.457
26.099
28.448
30.49
32.232
33.685
34.865
35.796
36.501
37.012
37.372
37.626
37.826
38.015
38.221
38.471
38.785
39.181
39.677
40.278
40.986
41.802
42.733
43.784
44.964
46.275
47.718
49.294
51.001
52.84
54.816
56.93
59.186
61.588
64.14
66.846
69.712
72.739
75.925
79.268
82.762
86.401
90.177
94.081
98.102
102.23
106.453
110.759
115.136
119.569
124.046
128.549
133.065
137.575
142.064
146.513
150.904
155.219
159.439
163.544
167.516
171.335
174.98
178.432
181.672
184.681
187.44
189.933
192.145
194.06
195.666
196.954
197.913
198.538
198.822
198.763
198.359
197.609
196.516
195.083
193.314
191.216
188.797
186.067
183.036
179.717
176.123
172.27
168.176
163.858
159.335
154.63
149.763
144.758
139.639
134.431
129.158
123.847
118.522
113.208
107.931
102.714
97.579
92.549
87.643
82.881
78.279
73.854
69.621
65.591
61.776
58.185
54.828
51.71
48.837
46.212
43.838
41.714
39.841
38.216
36.835
35.692
34.78
34.092
33.617
33.344
33.263
33.358
33.616
34.023
34.562
35.218
35.974
36.815
37.726
38.691
39.695
40.725
41.769
42.814
43.848
44.863
45.847
46.793
47.694
48.542
49.331
50.057
50.715
51.303
51.818
52.257
52.622
52.911
53.125
53.265
53.334
53.335
53.272
53.147
52.967
52.737
52.463
52.15
51.806
51.436
51.046
50.642
50.229
49.813
49.397
48.985
48.581
48.187
47.806
47.439
47.089
46.754
46.436
46.134
45.848
45.576
45.317
45.068
44.829
44.597
44.37
44.146
43.922
43.695
43.465
43.226
42.978
42.717
42.439
42.143
41.825
41.484
41.115
40.719
40.292
39.834
39.344
38.821
38.266
37.678
37.057
36.406
35.724
35.014
34.278
33.518
32.738
31.939
31.126
30.301
29.467
28.628
27.787
26.946
26.108
25.276
24.451
23.636
22.833
22.043
21.269
20.51
19.769
19.047
18.343
17.657
16.991
16.344
15.716
15.106
14.513
13.937
13.377
12.832
12.3
11.781
11.274
10.775
10.284
9.798
9.316
8.836
8.356
7.874
7.39
6.9
6.406
5.905
5.398
4.884
4.364
3.837
3.304
2.767
2.226
1.684
1.14
0.599
0.061
-0.472
-0.996
-1.511
-2.015
-2.504
-2.977
-3.433
-3.87
-4.286
-4.68
-5.05
-5.396
-5.714
-6.006
-6.269
-6.504
-6.709
-6.883
-7.028
-7.141
-7.226
-7.282
-7.31
-7.313
-7.291
-7.246
-7.181
-7.099
-7.001
-6.89
-6.768
-6.638
-6.504
-6.369
-6.236
-6.109
-5.987
-5.872
-5.765
-5.666
-5.578
-5.499
-5.43
-5.37
-5.322
-5.287
-5.269
-5.268
-5.281
-5.304
-5.333
-5.369
-5.415
-5.475
-5.547
-5.633
-5.731
-5.841
-5.966
-6.103
-6.245
-6.383
-6.504
-6.603
-6.682
-6.744
-6.8
-6.844
-6.853
-6.805
-6.671
-6.442
-6.147
-5.79
-5.367
-4.878
-4.292
-3.634
-3.014
-2.403
-1.655
-0.641
0.821
2.718
4.746
6.782
8.92
10.992
12.684
13.636
13.259
11.53
9.134
6.437
3.529
0.734
-1.631
-3.08
-2.737
-0.525
2.728
6.516
10.537
14.437
18.082
21.106
22.748
22.908
22.159
20.874
19.359
17.819
16.177
14.549
13.295
12.47
11.859
11.313
10.673
9.89
9.099
8.337
7.547
6.734
5.938
5.211
4.655
4.305
4.103
3.999
3.922
3.806
3.649
3.41
2.989
2.363
1.558
0.661
-0.068
-0.41
-0.401
-0.094
0.427
0.837
0.842
0.105
-2.035
-6.116
-12.164
-20.08
-29.56
-39.701
-49.616
-58.529
-65.299
-68.864
-68.653
-64.126
-54.943
-41.72
-25.367
-6.536
14.098
35.41
55.977
74.255
87.402
93.365
92.348
83.076
66.131
44.709
18.205
-13.022
-50.335
-100.248
-163.307
-235.156
-306.891
-363.17
-393.572
-394.992
-369.267
-325.375
-273.546
-222.746
-183.063
-159.905
-153.006
-157.955
-164.998
-166.001
-158.134
-142.594
-124.41
-107.791
-93.902
-82.17
-70.943
-59.502
-48.383
-38.373
-30.194
-23.974
-19.447
-16.402
-14.643
-13.97
-14.157
-14.889
-15.872
-16.942
-18.01
-19.03
-19.951
-20.682
-21.118
-21.155
-20.733
-19.831
-18.447
-16.593
-14.29
-11.595
-8.61
-5.48
-2.358
0.654
3.497
6.141
8.56
10.719
12.58
14.114
15.315
16.179
16.706
16.892
16.738
16.265
15.518
14.562
13.467
12.281
11.041
9.772
8.497
7.237
6.012
4.834
3.706
2.64
1.65
0.755
-0.023
-0.67
-1.176
-1.537
-1.748
-1.805
-1.7
-1.427
-0.98
-0.352
0.465
1.48
2.704
4.144
5.802
7.68
9.776
12.088
14.609
17.335
20.256
23.363
26.646
30.094
33.695
37.436
41.303
45.279
49.348
53.49
57.686
61.917
66.16
70.396
74.603
78.759
82.844
86.836
90.716
94.463
98.059
101.485
104.723
107.757
110.57
113.148
115.479
117.55
119.351
120.874
122.112
123.059
123.712
124.068
124.126
123.887
123.352
122.525
121.412
120.018
118.351
116.422
114.24
111.817
109.167
106.302
103.238
99.989
96.571
92.999
89.29
85.461
81.526
77.504
73.408
69.255
65.058
60.832
56.589
52.344
48.107
43.891
39.708
35.568
31.481
27.458
23.506
19.634
15.845
12.144
8.537
5.028
1.622
-1.673
-4.856
-7.922
-10.869
-13.696
-16.402
-18.989
-21.465
-23.834
-26.102
-28.269
-30.333
-32.294
-34.155
-35.924
-37.61
-39.227
-40.785
-42.294
-43.766
-45.209
-46.628
-48.021
-49.381
-50.699
-51.968
-53.191
-54.384
-55.55
-56.691
-57.79
-58.788
-59.632
-60.301
-60.777
-61.077
-61.24
-61.227
-61.035
-60.781
-60.495
-60.135
-59.603
-58.549
-56.66
-54.009
-50.742
-46.859
-42.626
-38.558
-35.174
-33.411
-34.348
-37.067
-40.438
-45.246
-50.791
-58.74
-71.206
-83.416
-92.162
-93.883
-84.121
-67.744
-49.592
-32.966
-22.619
-17.007
-14.076
-13.499
-13.628
-14.828
-17.356
-20.371
-23.569
-26.332
-28.178
-29.148
-29.302
-28.869
-28.251
-27.67
-27.249
-27.045
-27.001
-27.091
-27.316
-27.641
-28.024
-28.441
-28.891
-29.405
-30.035
-30.806
-31.724
-32.782
-33.962
-35.257
-36.663
-38.174
-39.783
-41.479
-43.25
-45.082
-46.962
-48.874
-50.801
-52.721
-54.615
-56.466
-58.261
-59.989
-61.644
-63.215
-64.69
-66.061
-67.314
-68.44
-69.43
-70.275
-70.966
-71.496
-71.859
-72.051
-72.069
-71.91
-71.572
-71.056
-70.361
-69.49
-68.448
-67.239
-65.87
-64.349
-62.687
-60.893
-58.98
-56.961
-54.848
-52.657
-50.402
-48.099
-45.763
-43.41
-41.057
-38.718
-36.409
-34.146
-31.944
-29.817
-27.779
-25.843
-24.023
-22.33
-20.775
-19.369
-18.12
-17.036
-16.125
-15.39
-14.835
-14.464
-14.276
-14.271
-14.447
-14.8
-15.326
-16.016
-16.864
-17.86
-18.993
-20.252
-21.625
-23.099
-24.66
-26.294
-27.987
-29.724
-31.492
-33.277
-35.064
-36.839
-38.591
-40.306
-41.972
-43.578
-45.113
-46.567
-47.931
-49.196
-50.356
-51.403
-52.332
-53.138
-53.819
-54.373
-54.797
-55.093
-55.261
-55.305
-55.228
-55.036
-54.734
-54.33
-53.831
-53.246
-52.584
-51.856
-51.069
-50.236
-49.364
-48.464
-47.545
-46.616
-45.685
-44.759
-43.847
-42.954
-42.087
-41.252
-40.454
-39.698
-38.988
-38.328
-37.721
-37.17
-36.675
-36.239
-35.86
-35.538
-35.271
-35.058
-34.894
-34.775
-34.697
-34.653
-34.636
-34.64
-34.655
-34.673
-34.684
-34.679
-34.65
-34.586
-34.481
-34.327
-34.116
-33.84
-33.495
-33.072
-32.565
-31.965
-31.264
-30.453
-29.524
-28.472
-27.29
-25.975
-24.522
-22.93
-21.202
-19.337
-17.337
-15.206
-12.944
-10.557
-8.049
-5.427
-2.697
0.13
3.049
6.051
9.127
12.273
15.486
18.766
22.119
25.549
29.055
32.636
36.286
39.991
43.735
47.485
51.2
54.839
58.356
61.702
64.831
67.693
70.244
72.451
74.278
75.689
76.662
77.178
77.221
76.805
75.958
74.719
73.194
71.518
69.823
68.295
67.128
66.432
66.291
66.693
67.392
68.123
68.639
68.593
67.776
66.206
63.824
61.044
59.045
58.965
61.927
68.023
75.61
83.188
90.716
100.388
114.791
133.299
149.926
154.012
136.703
94.933
31.897
-44.69
-128.553
-214.148
-293.957
-357.685
-393.757
-396.685
-370.745
-329.201
-287.104
-253.154
-228.507
-208.295
-187.883
-166.339
-145.211
-127.2
-113.131
-101.966
-92.142
-82.052
-71.136
-59.507
-47.342
-35.048
-23.127
-12.036
-2.291
5.705
11.886
16.323
19.183
20.75
21.323
21.245
20.869
20.445
20.109
19.95
20.027
20.418
21.233
22.528
24.326
26.63
29.414
32.654
36.318
40.316
44.521
48.782
52.943
56.907
60.626
64.056
67.169
69.928
72.287
74.239
75.795
76.959
77.74
78.145
78.183
77.895
77.345
76.6
75.731
74.794
73.827
72.87
71.952
71.101
70.338
69.677
69.13
68.701
68.388
68.195
68.128
68.199
68.43
68.833
69.397
70.161
71.201
72.571
74.303
76.39
78.773
81.414
84.33
87.388
90.24
92.81
95.244
97.548
100.007
102.032
102.038
100.587
99.229
101.018
111.132
129.344
151.968
173.213
183.529
180.006
164.879
143.036
125.126
118.491
125.648
146.307
173.733
198.635
215.148
219.935
214.033
204.612
196.768
193.343
196.064
201.385
206.689
211.311
213.976
215.685
217.32
218.524
219.447
219.981
219.891
219.35
218.495
217.313
215.843
214.12
212.128
209.857
207.307
204.461
201.302
197.848
194.115
190.108
185.843
181.336
176.598
171.648
166.506
161.185
155.702
150.075
144.322
138.462
132.512
126.492
120.419
114.313
108.192
102.073
95.973
89.911
83.903
77.965
72.111
66.358
60.719
55.205
49.831
44.606
39.54
34.642
29.921
25.381
21.029
16.867
12.899
9.124
5.543
2.154
-1.047
-4.062
-6.896
-9.555
-12.046
-14.375
-16.549
-18.576
-20.466
-22.226
-23.867
-25.395
-26.823
-28.157
-29.408
-30.585
-31.696
-32.749
-33.755
-34.718
-35.649
-36.552
-37.434
-38.301
-39.158
-40.009
-40.856
-41.703
-42.549
-43.396
-44.244
-45.09
-45.934
-46.771
-47.599
-48.415
-49.215
-49.993
-50.747
-51.47
-52.16
-52.81
-53.417
-53.976
-54.483
-54.934
-55.326
-55.656
-55.921
-56.119
-56.248
-56.307
-56.295
-56.213
-56.061
-55.84
-55.553
-55.202
-54.79
-54.323
-53.804
-53.24
-52.637
-52.002
-51.342
-50.665
-49.98
-49.293
-48.614
-47.951
-47.311
-46.703
-46.135
-45.613
-45.144
-44.736
-44.394
-44.125
-43.932
-43.82
-43.794
-43.855
-44.008
-44.252
-44.591
-45.024
-45.55
-46.17
-46.881
-47.681
-48.568
-49.538
-50.587
-51.71
-52.902
-54.157
-55.469
-56.833
-58.241
-59.688
-61.167
-62.673
-64.199
-65.739
-67.29
-68.844
-70.398
-71.948
-73.488
-75.016
-76.528
-78.021
-79.493
-80.942
-82.366
-83.764
-85.136
-86.479
-87.795
-89.082
-90.341
-91.573
-92.778
-93.957
-95.11
-96.24
-97.348
-98.434
-99.501
-100.549
-101.578
-102.59
-103.585
-104.562
-105.52
-106.459
-107.378
-108.274
-109.147
-109.994
-110.813
-111.602
-112.357
-113.076
-113.756
-114.394
-114.987
-115.532
-116.026
-116.466
-116.851
-117.178
-117.446
-117.651
-117.793
-117.871
-117.882
-117.828
-117.706
-117.518
-117.264
-116.945
-116.563
-116.12
-115.621
-115.067
-114.463
-113.814
-113.125
-112.4
-111.644
-110.863
-110.063
-109.248
-108.425
-107.598
-106.772
-105.953
-105.143
-104.348
-103.57
-102.811
-102.074
-101.36
-100.669
-100.002
-99.36
-98.74
-98.142
-97.564
-97.003
-96.457
-95.92
-95.388
-94.856
-94.316
-93.762
-93.186
-92.581
-91.938
-91.248
-90.504
-89.698
-88.822
-87.868
-86.83
-85.701
-84.474
-83.146
-81.711
-80.168
-78.513
-76.747
-74.869
-72.881
-70.786
-68.588
-66.291
-63.898
-61.417
-58.854
-56.216
-53.513
-50.755
-47.951
-45.113
-42.254
-39.388
-36.528
-33.69
-30.885
-28.128
-25.431
-22.807
-20.267
-17.82
-15.477
-13.244
-11.126
-9.13
-7.259
-5.519
-3.916
-2.45
-1.123
0.064
1.108
2.008
2.761
3.369
3.84
4.18
4.398
4.492
4.46
4.31
4.058
3.727
3.348
2.941
2.524
2.124
1.775
1.51
1.356
1.314
1.356
1.457
1.598
1.782
2.036
2.362
2.728
3.071
3.307
3.401
3.354
3.167
2.786
2.095
1.064
-0.15
-1.169
-1.603
-1.243
-0.166
1.495
3.906
7.175
11.095
14.958
17.609
18.277
17.073
14.523
10.862
6.352
1.467
-2.31
-2.172
3.99
17.052
36.175
59.038
84.858
113.373
144.183
177.467
208.044
227.312
227.445
199.477
142.943
66.046
-22.748
-112.371
-196.261
-274.262
-344.106
-403.335
-449.152
-477.308
-486.502
-478.162
-454.38
-418.389
-374.113
-325.366
-275.867
-228.896
-186.812
-151.046
-122.578
-101.693
-87.739
-79.419
-75.115
-73.11
-71.847
-70.269
-67.51
-63.061
-56.955
-49.56
-41.508
-33.606
-26.696
-21.294
-17.703
-15.981
-15.896
-17.147
-19.335
-21.974
-24.539
-26.625
-27.986
-28.497
-28.161
-27
-25.036
-22.333
-18.995
-15.137
-10.857
-6.266
-1.467
3.437
8.306
13.028
17.511
21.666
25.441
28.808
31.747
34.255
36.343
38.024
39.317
40.261
40.888
41.244
41.385
41.365
41.252
41.105
40.97
40.888
40.888
40.994
41.224
41.594
42.109
42.782
43.624
44.645
45.859
47.277
48.907
50.754
52.822
55.114
57.635
60.391
63.385
66.623
70.107
73.84
77.826
82.064
86.552
91.281
96.243
101.428
106.822
112.412
118.181
124.113
130.187
136.384
142.685
149.068
155.509
161.984
168.469
174.939
181.368
187.729
193.997
200.144
206.145
211.973
217.603
223.009
228.167
233.053
237.645
241.921
245.86
249.446
252.66
255.488
257.917
259.933
261.53
262.698
263.433
263.732
263.592
263.015
262.005
260.564
258.702
256.425
253.745
250.675
247.228
243.42
239.268
234.79
230.008
224.941
219.612
214.044
208.261
202.288
196.148
189.867
183.471
176.984
170.431
163.837
157.224
150.618
144.04
137.511
131.054
124.688
118.431
112.3
106.313
100.484
94.827
89.352
84.071
78.993
74.124
69.471
65.039
60.829
56.843
53.083
49.546
46.23
43.132
40.247
37.569
35.093
32.812
30.716
28.799
27.051
25.463
24.025
22.729
21.564
20.521
19.589
18.759
18.022
17.367
16.786
16.269
15.807
15.394
15.019
14.677
14.361
14.064
13.781
13.507
13.238
12.97
12.701
12.428
12.148
11.861
11.565
11.259
10.945
10.621
10.288
9.947
9.598
9.242
8.879
8.512
8.14
7.765
7.386
7.005
6.623
6.24
5.856
5.473
5.09
4.708
4.328
3.95
3.572
3.195
2.819
2.441
2.061
1.677
1.286
0.887
0.481
0.064
-0.363
-0.804
-1.266
-1.745
-2.24
-2.762
-3.322
-3.926
-4.587
-5.296
-6.039
-6.829
-7.683
-8.565
-9.451
-10.322
-11.145
-11.946
-12.775
-13.604
-14.378
-15.231
-16.322
-17.552
-18.928
-20.476
-21.849
-23.972
-27.742
-31.865
-35.947
-37.611
-34.017
-28.299
-22.543
-19.858
-24.518
-32.73
-41.28
-47.962
-49.136
-47.394
-45.362
-43.621
-43.768
-44.868
-45.715
-46.534
-47.165
-47.685
-48.33
-48.937
-49.376
-49.684
-49.867
-49.907
-49.805
-49.568
-49.201
-48.724
-48.165
-47.513
-46.758
-45.904
-44.953
-43.906
-42.769
-41.541
-40.222
-38.818
-37.333
-35.773
-34.142
-32.445
-30.686
-28.871
-27.005
-25.093
-23.14
-21.151
-19.133
-17.091
-15.031
-12.958
-10.878
-8.796
-6.718
-4.649
-2.594
-0.557
1.457
3.445
5.402
7.326
9.212
11.058
12.862
14.62
16.33
17.992
19.603
21.164
22.673
24.131
25.538
26.894
28.2
29.456
30.665
31.826
32.943
34.015
35.047
36.039
36.996
37.919
38.814
39.682
40.526
41.351
42.159
42.952
43.734
44.505
45.267
46.021
46.769
47.511
48.248
48.98
49.705
50.424
51.135
51.835
52.523
53.196
53.849
54.48
55.084
55.66
56.202
56.707
57.17
57.586
57.952
58.261
58.508
58.686
58.788
58.809
58.743
58.584
58.328
57.971
57.512
56.949
56.287
55.525
54.665
53.711
52.664
51.527
50.303
48.993
47.599
46.126
44.579
42.963
41.287
39.555
37.774
35.949
34.087
32.196
30.282
28.35
26.411
24.482
22.587
20.76
19.026
17.404
15.916
14.578
13.402
12.395
11.545
10.821
10.194
9.637
9.122
8.637
8.14
7.581
6.904
6.048
4.986
3.715
2.213
0.45
-1.589
-3.888
-6.359
-8.848
-11.246
-13.455
-15.376
-16.877
-17.693
-17.613
-16.599
-14.72
-12.189
-9.234
-5.963
-2.592
0.399
2.716
4.465
5.959
7.884
11.082
16.302
24.435
36.442
51.483
66.514
78.515
85.635
90.257
97.303
108.611
119.812
117.205
86.207
17.55
-89.299
-218.093
-348.429
-460.127
-533.911
-567.341
-566.192
-540.811
-508.617
-477.841
-450.412
-426.039
-399.377
-369.133
-337.033
-304.393
-273.889
-246.297
-220.776
-197.115
-174.656
-153.079
-133.377
-116.425
-102.719
-92.796
-86.491
-82.979
-81.833
-82.596
-84.259
-86.077
-87.547
-88.182
-88.102
-87.849
-87.637
-87.594
-87.941
-88.641
-89.589
-90.734
-91.773
-92.288
-92.063
-90.982
-88.992
-86.204
-82.737
-78.677
-74.188
-69.457
-64.609
-59.775
-55.072
-50.567
-46.332
-42.441
-38.926
-35.817
-33.136
-30.881
-29.031
-27.559
-26.418
-25.559
-24.947
-24.535
-24.274
-24.113
-23.99
-23.858
-23.681
-23.426
-23.07
-22.589
-21.963
-21.178
-20.232
-19.123
-17.846
-16.395
-14.759
-12.933
-10.913
-8.699
-6.291
-3.687
-0.884
2.12
5.328
8.74
12.357
16.18
20.211
24.451
28.894
33.535
38.363
43.37
48.545
53.873
59.341
64.932
70.628
76.414
82.271
88.179
94.118
100.065
105.998
111.895
117.731
123.482
129.124
134.631
139.98
145.146
150.106
154.836
159.313
163.514
167.418
171.004
174.251
177.142
179.659
181.786
183.51
184.818
185.7
186.148
186.157
185.722
184.842
183.518
181.751
179.546
176.91
173.852
170.382
166.515
162.264
157.648
152.685
147.396
141.803
135.93
129.802
123.445
116.886
110.153
103.274
96.28
89.199
82.061
74.896
67.734
60.604
53.534
46.552
39.684
32.956
26.392
20.015
13.846
7.904
2.208
-3.226
-8.385
-13.256
-17.828
-22.094
-26.048
-29.685
-33.004
-36.003
-38.687
-41.056
-43.118
-44.879
-46.347
-47.532
-48.446
-49.101
-49.512
-49.692
-49.657
-49.423
-49.008
-48.428
-47.7
-46.843
-45.873
-44.808
-43.665
-42.46
-41.21
-39.93
-38.634
-37.338
-36.055
-34.795
-33.572
-32.394
-31.271
-30.212
-29.222
-28.308
-27.475
-26.726
-26.064
-25.491
-25.006
-24.611
-24.303
-24.082
-23.943
-23.885
-23.902
-23.99
-24.145
-24.36
-24.631
-24.951
-25.313
-25.713
-26.143
-26.596
-27.067
-27.549
-28.036
-28.523
-29.002
-29.471
-29.922
-30.352
-30.756
-31.131
-31.473
-31.78
-32.048
-32.275
-32.461
-32.604
-32.703
-32.758
-32.77
-32.737
-32.661
-32.544
-32.385
-32.186
-31.949
-31.676
-31.368
-31.029
-30.659
-30.262
-29.839
-29.394
-28.928
-28.444
-27.946
-27.434
-26.913
-26.383
-25.849
-25.311
-24.773
-24.237
-23.705
-23.179
-22.66
-22.151
-21.652
-21.165
-20.69
-20.23
-19.784
-19.354
-18.941
-18.544
-18.165
-17.805
-17.462
-17.139
-16.834
-16.547
-16.278
-16.027
-15.794
-15.578
-15.379
-15.196
-15.029
-14.877
-14.739
-14.614
-14.499
-14.395
-14.3
-14.211
-14.128
-14.05
-13.973
-13.898
-13.822
-13.745
-13.664
-13.579
-13.486
-13.386
-13.275
-13.153
-13.018
-12.869
-12.706
-12.527
-12.334
-12.125
-11.903
-11.667
-11.418
-11.157
-10.886
-10.606
-10.319
-10.028
-9.735
-9.442
-9.154
-8.873
-8.605
-8.354
-8.121
-7.913
-7.734
-7.588
-7.479
-7.412
-7.391
-7.421
-7.508
-7.657
-7.872
-8.159
-8.521
-8.962
-9.484
-10.087
-10.77
-11.529
-12.361
-13.263
-14.229
-15.257
-16.342
-17.48
-18.671
-19.911
-21.194
-22.515
-23.864
-25.235
-26.621
-28.013
-29.403
-30.784
-32.145
-33.477
-34.777
-36.037
-37.238
-38.36
-39.368
-40.239
-40.959
-41.516
-41.897
-42.098
-42.116
-41.967
-41.69
-41.324
-40.901
-40.453
-39.998
-39.569
-39.217
-38.998
-38.979
-39.194
-39.636
-40.303
-41.205
-42.336
-43.684
-45.173
-46.644
-47.951
-48.965
-49.541
-49.587
-48.937
-47.335
-44.673
-40.952
-36.307
-31.142
-25.794
-20.406
-15.314
-10.928
-7.288
-4.354
-1.719
1.722
6.742
13.678
23.075
35.1
48.918
63.419
76.885
86.232
88.693
82.202
64.15
33.723
-6.929
-57.042
-115.913
-182.426
-258.426
-339.881
-416.538
-478.865
-516.271
-526.686
-518.084
-498.267
-475.605
-453.473
-428.841
-400.756
-369.004
-334.819
-301.921
-271.692
-244.086
-219.164
-196.279
-175.175
-155.98
-138.16
-120.93
-104.148
-87.989
-72.647
-58.293
-44.776
-31.912
-20.001
-9.694
-1.384
4.842
9.078
11.515
12.177
11.058
8.401
4.676
0.356
-4.156
-8.573
-12.712
-16.388
-19.436
-21.77
-23.375
-24.276
-24.52
-24.156
-23.216
-21.751
-19.812
-17.455
-14.753
-11.804
-8.727
-5.647
-2.69
0.059
2.544
4.725
6.586
8.128
9.373
10.358
11.133
11.739
12.212
12.587
12.898
13.192
13.522
13.944
14.514
15.277
16.262
17.493
18.986
20.749
22.781
25.074
27.613
30.388
33.39
36.614
40.054
43.702
47.547
51.577
55.781
60.145
64.657
69.306
74.078
78.961
83.943
89.014
94.162
99.375
104.639
109.938
115.254
120.57
125.868
131.131
136.339
141.473
146.516
151.449
156.256
160.92
165.425
169.754
173.892
177.823
181.532
185.006
188.229
191.19
193.875
196.272
198.37
200.158
201.629
202.774
203.585
204.059
204.189
203.974
203.411
202.501
201.243
199.64
197.696
195.417
192.808
189.879
186.638
183.096
179.265
175.157
170.788
166.17
161.321
156.258
150.998
145.559
139.962
134.227
128.374
122.426
116.403
110.328
104.222
98.107
92.006
85.94
79.93
73.997
68.16
62.44
56.854
51.42
46.154
41.073
36.19
31.519
27.07
22.856
18.883
15.162
11.697
8.494
5.557
2.887
0.484
-1.651
-3.523
-5.133
-6.489
-7.596
-8.462
-9.095
-9.507
-9.707
-9.707
-9.52
-9.159
-8.637
-7.969
-7.168
-6.248
-5.225
-4.113
-2.926
-1.677
-0.382
0.948
2.298
3.657
5.011
6.35
7.663
8.939
10.17
11.345
12.459
13.503
14.473
15.363
16.169
16.889
17.52
18.062
18.514
18.877
19.152
19.341
19.448
19.474
19.425
19.304
19.116
18.865
18.556
18.193
17.782
17.326
16.832
16.303
15.743
15.157
14.548
13.921
13.28
12.626
11.964
11.296
10.623
9.949
9.273
8.598
7.922
7.247
6.571
5.893
5.212
4.526
3.833
3.131
2.416
1.687
0.942
0.176
-0.612
-1.424
-2.262
-3.127
-4.02
-4.943
-5.894
-6.874
-7.881
-8.914
-9.971
-11.05
-12.148
-13.262
-14.388
-15.522
-16.66
-17.798
-18.93
-20.051
-21.156
-22.239
-23.292
-24.31
-25.287
-26.215
-27.089
-27.901
-28.647
-29.321
-29.919
-30.436
-30.868
-31.213
-31.468
-31.632
-31.706
-31.691
-31.587
-31.399
-31.13
-30.787
-30.374
-29.901
-29.373
-28.8
-28.19
-27.555
-26.903
-26.246
-25.593
-24.956
-24.347
-23.778
-23.261
-22.808
-22.43
-22.139
-21.945
-21.855
-21.877
-22.015
-22.273
-22.654
-23.161
-23.795
-24.557
-25.449
-26.471
-27.623
-28.902
-30.301
-31.814
-33.432
-35.146
-36.945
-38.821
-40.76
-42.751
-44.778
-46.834
-48.902
-50.96
-52.98
-54.922
-56.755
-58.457
-60.007
-61.383
-62.566
-63.544
-64.314
-64.894
-65.302
-65.552
-65.656
-65.62
-65.461
-65.221
-64.949
-64.704
-64.516
-64.38
-64.297
-64.279
-64.337
-64.476
-64.649
-64.744
-64.673
-64.363
-63.717
-62.668
-61.063
-58.642
-55.291
-50.995
-45.825
-40.127
-34.254
-28.382
-22.893
-18.267
-14.49
-11.477
-8.96
-5.71
-0.5
7.495
19.39
34.919
51.69
67.82
82.127
95.069
108.927
123.756
135.173
133.296
108.556
54.697
-29.653
-133.346
-242.202
-340.762
-410.474
-445.725
-448.768
-426.945
-396.396
-366.925
-341.781
-321.314
-300.737
-277.522
-252.011
-225.41
-200.324
-177.694
-157.294
-138.618
-120.385
-102.665
-86.661
-72.963
-62.043
-53.938
-47.87
-43.528
-41.019
-39.782
-38.87
-37.648
-35.612
-32.803
-29.89
-27.11
-24.377
-21.824
-19.629
-17.938
-16.883
-16.255
-15.518
-14.367
-12.706
-10.499
-7.827
-4.724
-1.186
2.677
6.651
10.53
14.166
17.498
20.546
23.316
25.788
27.927
29.694
31.09
32.138
32.855
33.259
33.358
33.178
32.771
32.213
31.584
30.948
30.348
29.811
29.366
29.042
28.869
28.869
29.053
29.431
30.019
30.834
31.895
33.218
34.809
36.666
38.789
41.18
43.838
46.764
49.956
53.409
57.121
61.091
65.316
69.791
74.507
79.455
84.619
89.986
95.539
101.261
107.132
113.132
119.239
125.432
131.689
137.987
144.301
150.608
156.882
163.098
169.23
175.252
181.138
186.863
192.402
197.732
202.828
207.668
212.233
216.501
220.456
224.081
227.361
230.283
232.834
235.005
236.788
238.177
239.168
239.757
239.945
239.734
239.126
238.127
236.745
234.987
232.863
230.387
227.572
224.434
220.989
217.256
213.255
209.007
204.535
199.861
195.01
190.007
184.876
179.643
174.332
168.969
163.577
158.18
152.802
147.463
142.186
136.989
131.892
126.912
122.065
117.366
112.828
108.464
104.283
100.296
96.509
92.929
89.56
86.405
83.466
80.743
78.235
75.937
73.848
71.96
70.267
68.761
67.432
66.271
65.267
64.408
63.683
63.079
62.584
62.187
61.875
61.636
61.461
61.337
61.256
61.206
61.18
61.169
61.165
61.161
61.151
61.128
61.088
61.025
60.937
60.818
60.667
60.48
60.255
59.991
59.686
59.34
58.952
58.523
58.053
57.543
56.994
56.407
55.784
55.125
54.431
53.704
52.944
52.152
51.326
50.468
49.575
48.647
47.683
46.681
45.637
44.551
43.418
42.237
41.005
39.718
38.375
36.973
35.511
33.986
32.398
30.747
29.031
27.251
25.407
23.501
21.535
19.51
17.428
15.294
13.111
10.882
8.614
6.31
3.976
1.618
-0.756
-3.139
-5.525
-7.905
-10.27
-12.613
-14.922
-17.189
-19.405
-21.56
-23.644
-25.65
-27.568
-29.39
-31.11
-32.723
-34.223
-35.605
-36.867
-38.006
-39.021
-39.912
-40.681
-41.33
-41.86
-42.276
-42.584
-42.789
-42.897
-42.917
-42.854
-42.718
-42.519
-42.265
-41.969
-41.639
-41.288
-40.925
-40.565
-40.219
-39.899
-39.616
-39.382
-39.206
-39.098
-39.068
-39.122
-39.266
-39.501
-39.828
-40.25
-40.765
-41.373
-42.073
-42.861
-43.736
-44.693
-45.733
-46.851
-48.044
-49.305
-50.625
-51.99
-53.394
-54.827
-56.286
-57.768
-59.262
-60.754
-62.224
-63.65
-65.015
-66.306
-67.499
-68.566
-69.488
-70.253
-70.876
-71.392
-71.82
-72.166
-72.415
-72.544
-72.57
-72.551
-72.558
-72.636
-72.785
-72.973
-73.226
-73.659
-74.314
-75.078
-75.65
-75.674
-74.984
-73.685
-71.951
-69.716
-66.864
-63.56
-60.378
-58.181
-57.604
-58.557
-60.436
-62.956
-66.063
-69.326
-71.766
-71.772
-67.73
-59.18
-46.76
-30.946
-12.008
9.114
30.712
50.06
63.866
69.91
67.189
54.567
30.819
-4.163
-49.338
-102.286
-159.358
-217.257
-273.29
-324.177
-366.285
-397.113
-415.371
-421.086
-415.667
-400.761
-377.984
-349.829
-319.479
-289.414
-261.321
-236.141
-213.874
-194.306
-177.274
-162.097
-147.615
-133.101
-118.218
-102.903
-87.584
-72.728
-58.67
-45.91
-35.011
-26.238
-19.663
-15.218
-12.615
-11.578
-11.833
-12.998
-14.717
-16.711
-18.762
-20.732
-22.507
-23.934
-24.884
-25.279
-25.066
-24.238
-22.81
-20.794
-18.241
-15.238
-11.904
-8.385
-4.82
-1.334
1.975
5.038
7.791
10.174
12.149
13.699
14.819
15.523
15.825
15.738
15.293
14.53
13.5
12.268
10.896
9.451
7.988
6.547
5.166
3.873
2.688
1.629
0.706
-0.079
-0.719
-1.204
-1.526
-1.678
-1.653
-1.452
-1.075
-0.524
0.199
1.093
2.157
3.391
4.795
6.368
8.112
10.027
12.113
14.364
16.775
19.336
22.039
24.873
27.826
30.884
34.035
37.265
40.558
43.902
47.281
50.681
54.086
57.48
60.845
64.167
67.429
70.614
73.705
76.686
79.541
82.255
84.814
87.202
89.407
91.416
93.214
94.792
96.137
97.24
98.091
98.681
99.004
99.055
98.829
98.323
97.536
96.468
95.122
93.498
91.602
89.439
87.014
84.335
81.41
78.249
74.864
71.265
67.466
63.481
59.323
55.008
50.551
45.969
41.278
36.493
31.633
26.713
21.751
16.765
11.771
6.787
1.829
-3.086
-7.942
-12.722
-17.413
-22
-26.47
-30.81
-35.008
-39.055
-42.94
-46.653
-50.189
-53.538
-56.697
-59.659
-62.423
-64.984
-67.341
-69.495
-71.444
-73.19
-74.735
-76.081
-77.231
-78.188
-78.958
-79.543
-79.951
-80.186
-80.255
-80.165
-79.922
-79.533
-79.007
-78.351
-77.573
-76.681
-75.684
-74.589
-73.406
-72.142
-70.807
-69.409
-67.957
-66.459
-64.922
-63.355
-61.766
-60.161
-58.549
-56.935
-55.326
-53.728
-52.147
-50.589
-49.059
-47.563
-46.104
-44.687
-43.316
-41.995
-40.728
-39.517
-38.367
-37.279
-36.257
-35.302
-34.416
-33.601
-32.858
-32.186
-31.585
-31.055
-30.594
-30.2
-29.871
-29.602
-29.392
-29.235
-29.128
-29.065
-29.041
-29.051
-29.089
-29.149
-29.227
-29.315
-29.409
-29.502
-29.59
-29.666
-29.725
-29.762
-29.771
-29.747
-29.685
-29.579
-29.424
-29.215
-28.947
-28.614
-28.214
-27.742
-27.194
-26.569
-25.865
-25.082
-24.219
-23.279
-22.263
-21.174
-20.016
-18.794
-17.513
-16.179
-14.798
-13.376
-11.921
-10.44
-8.94
-7.43
-5.916
-4.405
-2.905
-1.424
0.031
1.454
2.837
4.173
5.455
6.674
7.821
8.89
9.872
10.762
11.554
12.242
12.824
13.3
13.671
13.938
14.102
14.165
14.131
14.003
13.786
13.482
13.096
12.63
12.09
11.482
10.809
10.075
9.285
8.443
7.558
6.637
5.688
4.718
3.742
2.773
1.831
0.938
0.112
-0.63
-1.269
-1.786
-2.17
-2.416
-2.533
-2.546
-2.482
-2.37
-2.244
-2.143
-2.116
-2.22
-2.488
-2.944
-3.609
-4.496
-5.64
-7.088
-8.836
-10.831
-12.996
-15.204
-17.323
-19.258
-20.826
-21.756
-21.901
-21.224
-19.86
-18.192
-16.534
-14.982
-13.728
-13.031
-12.798
-12.738
-12.144
-9.674
-4.307
4.417
16.941
33.357
52.801
73.903
94.48
111.188
121.185
122.246
111.99
88.885
53.02
5.551
-51.029
-112.723
-175.849
-236.851
-291.267
-335.123
-365.942
-382.572
-385.379
-375.99
-355.904
-326.841
-291.944
-254.912
-218.832
-185.749
-156.542
-131.373
-110.605
-94.648
-82.843
-73.518
-64.932
-55.988
-46.336
-36.086
-25.187
-13.299
-0.526
12.347
24.312
34.667
43.145
49.816
54.766
57.893
59.236
59.106
57.981
56.296
54.339
52.281
50.242
48.416
46.961
45.949
45.392
45.267
45.564
46.289
47.437
48.962
50.798
52.889
55.173
57.593
60.068
62.484
64.747
66.783
68.543
70.002
71.134
71.921
72.367
72.495
72.337
71.932
71.314
70.508
69.549
68.479
67.347
66.212
65.117
64.095
63.173
62.373
61.713
61.209
60.869
60.686
60.66
60.789
61.075
61.521
62.128
62.89
63.805
64.865
66.067
67.409
68.888
70.498
72.235
74.097
76.078
78.177
80.388
82.703
85.115
87.611
90.182
92.817
95.502
98.224
100.969
103.724
106.476
109.21
111.914
114.572
117.172
119.7
122.142
124.485
126.715
128.821
130.79
132.61
134.271
135.761
137.07
138.189
139.109
139.822
140.322
140.603
140.659
140.488
140.086
139.452
138.586
137.488
136.161
134.606
132.829
130.834
128.629
126.221
123.618
120.829
117.865
114.736
111.453
108.029
104.477
100.809
97.039
93.182
89.251
85.262
81.229
77.167
73.089
69.012
64.948
60.911
56.916
52.974
49.098
45.301
41.592
37.984
34.485
31.105
27.852
24.734
21.756
18.925
16.244
13.718
11.347
9.134
7.079
5.182
3.44
1.852
0.415
-0.877
-2.026
-3.041
-3.926
-4.689
-5.337
-5.879
-6.323
-6.677
-6.952
-7.156
-7.298
-7.389
-7.437
-7.454
-7.448
-7.43
-7.41
-7.396
-7.399
-7.426
-7.487
-7.588
-7.738
-7.943
-8.209
-8.54
-8.942
-9.419
-9.972
-10.605
-11.319
-12.113
-12.989
-13.943
-14.974
-16.079
-17.254
-18.494
-19.793
-21.147
-22.548
-23.989
-25.462
-26.96
-28.473
-29.992
-31.508
-33.01
-34.488
-35.933
-37.333
-38.678
-39.959
-41.167
-42.292
-43.325
-44.258
-45.085
-45.798
-46.392
-46.86
-47.2
-47.407
-47.479
-47.416
-47.217
-46.883
-46.417
-45.821
-45.1
-44.259
-43.303
-42.24
-41.076
-39.821
-38.484
-37.074
-35.604
-34.085
-32.529
-30.949
-29.357
-27.766
-26.19
-24.64
-23.128
-21.667
-20.268
-18.941
-17.696
-16.543
-15.489
-14.542
-13.708
-12.992
-12.397
-11.927
-11.582
-11.363
-11.268
-11.296
-11.444
-11.708
-12.082
-12.562
-13.14
-13.808
-14.559
-15.381
-16.264
-17.196
-18.166
-19.16
-20.166
-21.171
-22.163
-23.129
-24.057
-24.938
-25.759
-26.512
-27.187
-27.776
-28.273
-28.671
-28.967
-29.157
-29.238
-29.211
-29.077
-28.835
-28.489
-28.043
-27.501
-26.87
-26.155
-25.364
-24.503
-23.582
-22.609
-21.596
-20.553
-19.49
-18.42
-17.354
-16.307
-15.292
-14.321
-13.4
-12.537
-11.737
-11.004
-10.344
-9.759
-9.251
-8.821
-8.477
-8.227
-8.082
-8.049
-8.131
-8.324
-8.629
-9.048
-9.581
-10.232
-11.002
-11.893
-12.908
-14.053
-15.326
-16.718
-18.216
-19.782
-21.385
-22.99
-24.566
-26.1
-27.58
-29.001
-30.342
-31.562
-32.624
-33.52
-34.271
-34.937
-35.568
-36.136
-36.7
-37.449
-38.489
-39.861
-41.447
-42.835
-43.688
-43.98
-43.574
-42.141
-39.857
-37.17
-34.652
-33.727
-34.71
-36.184
-38.78
-43.963
-53.941
-73.517
-100.733
-127.46
-145.583
-144.635
-123.062
-89.222
-50.331
-14.538
14.79
40.86
64.022
83.101
96.351
100.127
92.585
73.454
42.966
2.736
-44.658
-96.117
-148.871
-200.65
-249.053
-291.247
-324.517
-347.108
-358.474
-359.263
-350.293
-332.159
-306.203
-275.049
-241.788
-209.141
-179.325
-153.479
-132.398
-117.252
-108.439
-105.09
-105.784
-108.813
-112.395
-115.587
-117.734
-117.804
-115.283
-110.271
-103.147
-94.76
-86.123
-77.696
-69.738
-62.617
-56.418
-51.126
-46.686
-42.751
-38.922
-35.032
-31.002
-26.806
-22.523
-18.189
-13.822
-9.516
-5.359
-1.411
2.285
5.718
8.889
11.793
14.424
16.777
18.852
20.655
22.198
23.5
24.586
25.473
26.177
26.714
27.094
27.335
27.458
27.479
27.419
27.297
27.131
26.944
26.76
26.598
26.475
26.407
26.405
26.486
26.665
26.961
27.388
27.962
28.697
29.607
30.706
32.006
33.515
35.243
37.195
39.376
41.792
44.447
47.342
50.48
53.86
57.481
61.34
65.433
69.752
74.29
79.036
83.978
89.103
94.396
99.841
105.419
111.111
116.897
122.755
128.662
134.596
140.531
146.443
152.307
158.096
163.784
169.345
174.752
179.98
185.002
189.794
194.332
198.592
202.554
206.195
209.497
212.441
215.011
217.193
218.973
220.341
221.289
221.811
221.904
221.567
220.804
219.619
218.019
216.014
213.617
210.841
207.703
204.219
200.408
196.293
191.895
187.24
182.352
177.259
171.989
166.571
161.033
155.406
149.718
143.996
138.27
132.566
126.911
121.33
115.847
110.487
105.27
100.217
95.345
90.67
86.202
81.953
77.927
74.129
70.56
67.216
64.093
61.187
58.491
55.997
53.695
51.575
49.627
47.84
46.201
44.691
43.293
41.984
40.746
39.557
38.398
37.249
36.09
34.904
33.68
32.408
31.077
29.67
28.168
26.548
24.797
22.911
20.89
18.734
16.455
14.07
11.61
9.126
6.651
4.204
1.788
-0.604
-2.973
-5.306
-7.584
-9.794
-11.928
-13.992
-15.986
-17.896
-19.742
-21.564
-23.452
-25.531
-27.892
-30.575
-33.595
-36.944
-40.615
-44.623
-48.959
-53.579
-58.43
-63.436
-68.541
-73.719
-78.899
-83.964
-88.708
-92.85
-96.146
-98.425
-99.534
-99.349
-97.716
-94.384
-89.256
-82.465
-74.288
-65.239
-55.805
-46.257
-36.994
-28.64
-21.541
-15.678
-10.534
-4.757
2.945
13.295
26.982
44.489
65.497
88.833
112.323
132.518
145.669
148.319
137.134
109.392
64.873
6.142
-63.841
-142.144
-228.596
-324.802
-427.242
-526.337
-606.589
-652.412
-657.459
-626.095
-571.81
-509.296
-447.173
-387.994
-329.838
-271.407
-215.001
-164.76
-124.617
-96.132
-78.328
-68.711
-64.267
-62.48
-60.942
-57.586
-51.353
-41.822
-29.205
-14.462
1.248
16.706
30.45
41.421
49.209
53.759
55.391
54.62
51.942
47.964
43.461
39.074
35.188
32.01
29.56
27.82
26.828
26.592
27.058
28.151
29.786
31.869
34.338
37.147
40.207
43.404
46.593
49.599
52.304
54.642
56.573
58.071
59.115
59.685
59.797
59.503
58.86
57.921
56.737
55.347
53.807
52.19
50.572
49.034
47.635
46.411
45.391
44.598
44.046
43.752
43.718
43.933
44.396
45.109
46.074
47.298
48.783
50.518
52.495
54.701
57.119
59.739
62.552
65.552
68.741
72.113
75.659
79.371
83.235
87.222
91.297
95.403
99.481
103.486
107.382
111.143
114.763
118.232
121.545
124.707
127.71
130.547
133.217
135.704
137.993
140.101
142.065
143.95
145.842
147.793
149.839
152.008
154.301
156.697
159.144
161.548
163.822
165.894
167.696
169.182
170.304
170.98
171.112
170.584
169.264
167.046
163.844
159.56
154.124
147.527
139.83
131.165
121.682
111.512
100.788
89.643
78.228
66.711
55.253
44.009
33.133
22.782
13.115
4.31
-3.461
-10.099
-15.583
-19.955
-23.285
-25.643
-27.111
-27.799
-27.859
-27.426
-26.609
-25.489
-24.135
-22.633
-21.091
-19.631
-18.377
-17.412
-16.772
-16.47
-16.503
-16.854
-17.49
-18.346
-19.317
-20.331
-21.348
-22.349
-23.339
-24.306
-25.226
-26.075
-26.833
-27.486
-28.035
-28.475
-28.804
-29.033
-29.184
-29.296
-29.427
-29.615
-29.88
-30.233
-30.671
-31.194
-31.804
-32.494
-33.25
-34.062
-34.922
-35.825
-36.772
-37.753
-38.758
-39.769
-40.767
-41.736
-42.663
-43.535
-44.341
-45.073
-45.724
-46.291
-46.775
-47.176
-47.491
-47.72
-47.861
-47.913
-47.878
-47.759
-47.557
-47.277
-46.925
-46.508
-46.035
-45.517
-44.962
-44.381
-43.784
-43.183
-42.587
-42.007
-41.454
-40.937
-40.466
-40.052
-39.703
-39.43
-39.239
-39.139
-39.136
-39.236
-39.443
-39.761
-40.191
-40.735
-41.392
-42.16
-43.037
-44.02
-45.102
-46.278
-47.542
-48.885
-50.298
-51.77
-53.292
-54.852
-56.437
-58.034
-59.633
-61.219
-62.781
-64.306
-65.782
-67.198
-68.544
-69.809
-70.982
-72.056
-73.021
-73.87
-74.596
-75.193
-75.657
-75.983
-76.169
-76.214
-76.117
-75.879
-75.502
-74.988
-74.342
-73.569
-72.673
-71.661
-70.54
-69.319
-68.006
-66.609
-65.138
-63.604
-62.014
-60.38
-58.71
-57.014
-55.301
-53.578
-51.856
-50.14
-48.439
-46.759
-45.107
-43.49
-41.913
-40.381
-38.898
-37.469
-36.097
-34.783
-33.53
-32.34
-31.213
-30.149
-29.148
-28.21
-27.334
-26.517
-25.759
-25.056
-24.405
-23.804
-23.248
-22.736
-22.263
-21.827
-21.424
-21.051
-20.706
-20.387
-20.091
-19.817
-19.561
-19.323
-19.1
-18.891
-18.693
-18.506
-18.328
-18.159
-17.996
-17.839
-17.688
-17.541
-17.398
-17.258
-17.12
-16.983
-16.847
-16.712
-16.577
-16.443
-16.31
-16.178
-16.046
-15.916
-15.786
-15.657
-15.528
-15.398
-15.267
-15.134
-14.998
-14.858
-14.714
-14.565
-14.409
-14.246
-14.076
-13.899
-13.712
-13.518
-13.314
-13.103
-12.883
-12.655
-12.421
-12.181
-11.937
-11.688
-11.437
-11.185
-10.932
-10.68
-10.431
-10.185
-9.943
-9.708
-9.481
-9.263
-9.057
-8.865
-8.687
-8.526
-8.385
-8.263
-8.165
-8.089
-8.04
-8.017
-8.021
-8.054
-8.116
-8.206
-8.326
-8.473
-8.647
-8.847
-9.072
-9.319
-9.587
-9.874
-10.177
-10.495
-10.823
-11.159
-11.5
-11.843
-12.185
-12.522
-12.85
-13.168
-13.471
-13.758
-14.026
-14.272
-14.493
-14.688
-14.854
-14.99
-15.094
-15.166
-15.203
-15.208
-15.179
-15.119
-15.028
-14.908
-14.76
-14.589
-14.397
-14.188
-13.965
-13.732
-13.493
-13.253
-13.018
-12.793
-12.584
-12.394
-12.228
-12.091
-11.988
-11.924
-11.898
-11.91
-11.958
-12.042
-12.161
-12.316
-12.504
-12.724
-12.976
-13.262
-13.585
-13.95
-14.356
-14.802
-15.284
-15.795
-16.335
-16.904
-17.497
-18.115
-18.752
-19.399
-20.053
-20.702
-21.319
-21.89
-22.409
-22.857
-23.228
-23.512
-23.687
-23.775
-23.827
-23.832
-23.719
-23.431
-22.926
-22.252
-21.557
-20.897
-20.204
-19.553
-19.279
-19.563
-20.385
-21.678
-22.821
-24.107
-27.209
-31.758
-36.269
-37.801
-30.948
-16.396
-0.022
11.979
11.437
-1.762
-19.858
-37.079
-47.383
-49.349
-47.163
-42.316
-35.304
-26.224
-13.544
3.34
24.077
47.516
71.456
93.08
109.246
117.599
116.555
104.43
79.975
44.42
1.053
-48.072
-100.671
-156.205
-217.154
-278.643
-332.318
-372.285
-389.522
-383.259
-359.758
-321.37
-275.539
-230.135
-190.376
-164.512
-155.122
-157.769
-164.427
-165.872
-157.358
-139.963
-118.99
-99.168
-82.178
-67.658
-53.869
-40.093
-27.122
-15.809
-6.654
0.341
5.557
9.296
11.666
12.821
13.035
12.608
11.781
10.73
9.541
8.285
7.084
6.062
5.348
5.031
5.148
5.716
6.731
8.182
10.048
12.285
14.798
17.475
20.2
22.856
25.369
27.69
29.768
31.564
33.036
34.158
34.929
35.365
35.478
35.284
34.798
34.044
33.071
31.932
30.686
29.397
28.11
26.861
25.683
24.602
23.641
22.817
22.139
21.61
21.237
21.028
20.993
21.143
21.481
22.008
22.724
23.625
24.71
25.977
27.425
29.051
30.855
32.836
34.992
37.323
39.827
42.497
45.326
48.303
51.417
54.659
58.014
61.471
65.014
68.63
72.307
76.03
79.787
83.565
87.347
91.122
94.873
98.588
102.251
105.848
109.366
112.789
116.104
119.299
122.36
125.275
128.032
130.621
133.03
135.251
137.273
139.091
140.696
142.083
143.249
144.189
144.903
145.389
145.648
145.681
145.49
145.079
144.449
143.607
142.556
141.303
139.854
138.215
136.395
134.402
132.246
129.935
127.482
124.896
122.189
119.375
116.464
113.471
110.408
107.289
104.126
100.934
97.726
94.514
91.311
88.13
84.981
81.878
78.829
75.845
72.935
70.109
67.375
64.739
62.21
59.794
57.496
55.321
53.275
51.361
49.582
47.94
46.439
45.078
43.857
42.777
41.836
41.031
40.361
39.822
39.409
39.119
38.947
38.886
38.932
39.077
39.316
39.641
40.047
40.526
41.071
41.676
42.333
43.035
43.776
44.549
45.347
46.163
46.991
47.825
48.659
49.485
50.3
51.096
51.869
52.614
53.325
54
54.632
55.219
55.758
56.244
56.676
57.05
57.365
57.618
57.807
57.931
57.988
57.978
57.899
57.751
57.532
57.243
56.884
56.453
55.951
55.378
54.735
54.021
53.239
52.388
51.47
50.486
49.438
48.327
47.155
45.923
44.635
43.292
41.897
40.453
38.962
37.427
35.852
34.241
32.596
30.923
29.225
27.507
25.773
24.027
22.275
20.522
18.772
17.03
15.302
13.593
11.907
10.25
8.626
7.04
5.497
4
2.553
1.161
-0.174
-1.449
-2.661
-3.808
-4.887
-5.897
-6.836
-7.704
-8.501
-9.226
-9.88
-10.464
-10.98
-11.429
-11.814
-12.138
-12.403
-12.613
-12.773
-12.886
-12.956
-12.989
-12.989
-12.961
-12.911
-12.842
-12.761
-12.672
-12.579
-12.486
-12.399
-12.32
-12.253
-12.202
-12.17
-12.159
-12.171
-12.21
-12.277
-12.372
-12.496
-12.65
-12.834
-13.047
-13.287
-13.554
-13.846
-14.16
-14.494
-14.844
-15.209
-15.583
-15.963
-16.344
-16.722
-17.093
-17.453
-17.796
-18.118
-18.415
-18.684
-18.919
-19.119
-19.279
-19.395
-19.466
-19.487
-19.456
-19.372
-19.232
-19.036
-18.781
-18.469
-18.1
-17.674
-17.194
-16.66
-16.075
-15.441
-14.761
-14.041
-13.283
-12.492
-11.675
-10.835
-9.981
-9.119
-8.255
-7.397
-6.55
-5.723
-4.922
-4.154
-3.427
-2.747
-2.122
-1.56
-1.067
-0.651
-0.318
-0.074
0.076
0.129
0.083
-0.065
-0.314
-0.664
-1.115
-1.664
-2.306
-3.037
-3.854
-4.756
-5.737
-6.793
-7.917
-9.101
-10.342
-11.639
-12.988
-14.381
-15.806
-17.252
-18.711
-20.185
-21.673
-23.164
-24.64
-26.074
-27.448
-28.755
-29.984
-31.12
-32.14
-33.023
-33.765
-34.385
-34.915
-35.386
-35.81
-36.177
-36.474
-36.703
-36.9
-37.134
-37.461
-37.888
-38.411
-39.018
-39.74
-40.678
-41.813
-42.929
-43.676
-43.691
-42.807
-41.172
-38.918
-35.877
-32.015
-27.626
-23.474
-20.732
-20.08
-21.267
-23.774
-27.459
-32.047
-36.921
-40.676
-40.879
-35.744
-24.975
-8.998
11.648
35.962
62.4
88.384
109.768
122.662
124.443
113.225
87.831
48.056
-5.246
-70.024
-142.485
-217.888
-291.671
-359.307
-416.286
-460.08
-489.268
-501.448
-496.517
-473.756
-432.874
-380.446
-322.603
-266.582
-220.233
-182.741
-153.136
-130.19
-110.379
-95.723
-87.29
-83.716
-84.699
-87.177
-88.256
-87.343
-83.878
-78.002
-70.584
-62.217
-53.637
-46.016
-40.142
-36.279
-34.471
-34.479
-35.902
-38.386
-41.505
-44.669
-47.44
-49.593
-51.007
-51.707
-51.744
-51.116
-49.865
-48.079
-45.844
-43.239
-40.354
-37.259
-34.035
-30.798
-27.639
-24.638
-21.87
-19.375
-17.174
-15.277
-13.684
-12.379
-11.349
-10.572
-10.012
-9.637
-9.405
-9.267
-9.171
-9.058
-8.877
-8.587
-8.157
-7.565
-6.797
-5.843
-4.699
-3.367
-1.849
-0.145
1.743
3.818
6.077
8.516
11.126
13.899
16.826
19.9
23.113
26.46
29.935
33.529
37.239
41.06
44.984
49.003
53.105
57.278
61.51
65.787
70.095
74.421
78.749
83.065
87.357
91.61
95.812
99.949
104.008
107.975
111.837
115.581
119.194
122.665
125.981
129.13
132.102
134.886
137.473
139.854
142.019
143.959
145.669
147.14
148.366
149.342
150.063
150.526
150.728
150.667
150.343
149.757
148.909
147.802
146.439
144.825
142.963
140.858
138.518
135.949
133.159
130.156
126.95
123.551
119.969
116.218
112.307
108.251
104.062
99.753
95.339
90.833
86.25
81.604
76.911
72.186
67.444
62.699
57.968
53.263
48.6
43.993
39.454
34.996
30.632
26.373
22.229
18.212
14.331
10.594
7.01
3.586
0.327
-2.76
-5.671
-8.403
-10.954
-13.321
-15.503
-17.5
-19.314
-20.944
-22.395
-23.667
-24.766
-25.694
-26.459
-27.064
-27.517
-27.823
-27.992
-28.029
-27.943
-27.741
-27.432
-27.024
-26.526
-25.945
-25.291
-24.571
-23.795
-22.969
-22.103
-21.204
-20.279
-19.336
-18.381
-17.42
-16.461
-15.509
-14.568
-13.645
-12.745
-11.871
-11.028
-10.221
-9.451
-8.723
-8.039
-7.401
-6.812
-6.273
-5.785
-5.35
-4.968
-4.64
-4.368
-4.15
-3.988
-3.88
-3.828
-3.829
-3.885
-3.993
-4.153
-4.365
-4.627
-4.938
-5.298
-5.704
-6.157
-6.654
-7.195
-7.778
-8.402
-9.064
-9.762
-10.496
-11.263
-12.061
-12.888
-13.741
-14.618
-15.517
-16.434
-17.368
-18.315
-19.273
-20.238
-21.208
-22.179
-23.15
-24.116
-25.076
-26.027
-26.965
-27.889
-28.796
-29.683
-30.548
-31.389
-32.203
-32.988
-33.742
-34.463
-35.15
-35.8
-36.413
-36.988
-37.522
-38.017
-38.471
-38.884
-39.257
-39.59
-39.884
-40.14
-40.359
-40.543
-40.694
-40.814
-40.905
-40.97
-41.011
-41.029
-41.028
-41.01
-40.976
-40.93
-40.874
-40.809
-40.739
-40.665
-40.591
-40.519
-40.45
-40.389
-40.336
-40.294
-40.265
-40.251
-40.254
-40.275
-40.316
-40.379
-40.464
-40.572
-40.702
-40.854
-41.028
-41.221
-41.432
-41.659
-41.898
-42.149
-42.407
-42.672
-42.94
-43.209
-43.477
-43.741
-43.998
-44.245
-44.479
-44.695
-44.89
-45.059
-45.2
-45.309
-45.382
-45.414
-45.404
-45.347
-45.241
-45.08
-44.863
-44.586
-44.246
-43.843
-43.375
-42.842
-42.246
-41.589
-40.874
-40.108
-39.295
-38.439
-37.544
-36.615
-35.656
-34.672
-33.664
-32.634
-31.585
-30.523
-29.457
-28.395
-27.347
-26.321
-25.327
-24.377
-23.477
-22.636
-21.856
-21.135
-20.476
-19.885
-19.371
-18.949
-18.629
-18.411
-18.293
-18.277
-18.35
-18.496
-18.687
-18.875
-19.03
-19.138
-19.192
-19.203
-19.184
-19.137
-19.063
-18.961
-18.823
-18.652
-18.449
-18.204
-17.93
-17.659
-17.454
-17.428
-17.672
-18.238
-19.159
-20.435
-22.049
-23.989
-26.233
-28.741
-31.495
-34.469
-37.614
-40.907
-44.302
-47.718
-51.043
-54.079
-56.588
-58.378
-59.308
-59.273
-58.215
-56.027
-52.519
-47.618
-41.377
-33.955
-25.678
-16.83
-7.614
1.632
10.34
18.072
24.762
30.697
36.627
43.461
52.035
63.262
77.989
95.53
113.232
128.12
138.102
144.525
150.796
158.453
164.034
155.936
122.06
53.635
-51.011
-177.48
-307.216
-420.282
-496.507
-532.267
-531.992
-504.844
-467.405
-427.859
-388.791
-351.333
-311.785
-270.025
-229.064
-191.629
-161.591
-140.373
-126.611
-118.288
-112.656
-107.414
-101.545
-94.279
-84.792
-72.895
-58.923
-43.657
-28.486
-14.727
-3.001
6.365
13.113
17.283
19.05
18.75
17.075
14.734
12.183
9.708
7.499
5.676
4.366
3.681
3.626
4.154
5.23
6.829
8.937
11.524
14.526
17.827
21.301
24.82
28.253
31.504
34.501
37.172
39.47
41.373
42.863
43.949
44.657
45.007
45.028
44.764
44.254
43.553
42.729
41.848
40.983
40.193
39.523
39.009
38.682
38.563
38.67
39.013
39.593
40.414
41.482
42.8
44.377
46.213
48.306
50.652
53.243
56.074
59.139
62.433
65.95
69.683
73.625
77.77
82.111
86.638
91.341
96.203
101.208
106.339
111.579
116.908
122.306
127.754
133.232
138.72
144.2
149.653
155.06
160.401
165.656
170.807
175.834
180.719
185.442
189.985
194.329
198.459
202.357
206.008
209.396
212.508
215.329
217.849
220.055
221.938
223.489
224.702
225.57
226.091
226.26
226.078
225.545
224.662
223.433
221.861
219.952
217.713
215.15
212.272
209.09
205.613
201.854
197.827
193.545
189.025
184.282
179.336
174.204
168.906
163.462
157.892
152.218
146.462
140.645
134.79
128.918
123.052
117.213
111.422
105.7
100.067
94.541
89.142
83.886
78.79
73.869
69.139
64.612
60.302
56.218
52.372
48.772
45.425
42.337
39.512
36.954
34.664
32.641
30.885
29.393
28.159
27.178
26.442
25.944
25.673
25.618
25.769
26.112
26.634
27.322
28.16
29.135
30.232
31.435
32.729
34.1
35.533
37.013
38.526
40.059
41.597
43.129
44.642
46.124
47.565
48.954
50.284
51.545
52.731
53.836
54.856
55.786
56.623
57.368
58.019
58.577
59.044
59.422
59.715
59.927
60.063
60.129
60.13
60.074
59.965
59.813
59.623
59.402
59.157
58.894
58.62
58.341
58.061
57.787
57.522
57.27
57.036
56.821
56.628
56.457
56.31
56.185
56.081
55.995
55.925
55.867
55.815
55.764
55.708
55.64
55.552
55.436
55.283
55.086
54.834
54.518
54.129
53.657
53.095
52.433
51.664
50.78
49.773
48.639
47.37
45.964
44.415
42.72
40.877
38.885
36.745
34.456
32.021
29.443
26.727
23.877
20.902
17.808
14.604
11.3
7.905
4.432
0.894
-2.698
-6.329
-9.985
-13.651
-17.312
-20.952
-24.557
-28.111
-31.599
-35.007
-38.321
-41.526
-44.611
-47.562
-50.367
-53.017
-55.498
-57.803
-59.923
-61.85
-63.579
-65.104
-66.421
-67.529
-68.426
-69.113
-69.592
-69.867
-69.94
-69.817
-69.507
-69.016
-68.355
-67.533
-66.562
-65.455
-64.224
-62.885
-61.45
-59.936
-58.356
-56.725
-55.058
-53.371
-51.678
-49.993
-48.33
-46.704
-45.13
-43.621
-42.191
-40.851
-39.613
-38.485
-37.478
-36.596
-35.843
-35.219
-34.725
-34.361
-34.126
-34.019
-34.037
-34.176
-34.435
-34.81
-35.296
-35.886
-36.57
-37.34
-38.189
-39.11
-40.092
-41.126
-42.204
-43.316
-44.457
-45.61
-46.758
-47.874
-48.926
-49.889
-50.747
-51.478
-52.064
-52.494
-52.761
-52.878
-52.875
-52.775
-52.601
-52.376
-52.118
-51.872
-51.693
-51.637
-51.756
-52.072
-52.596
-53.354
-54.376
-55.675
-57.23
-58.959
-60.73
-62.427
-63.948
-65.193
-66.017
-66.173
-65.482
-63.888
-61.513
-58.718
-55.805
-52.939
-50.374
-48.484
-47.435
-47.155
-47.104
-45.997
-42.765
-36.777
-27.14
-13.366
4.116
24.63
45.455
62.469
73.475
75.597
67.548
50.498
22.296
-17.973
-71.471
-142.739
-231.106
-331.428
-435.1
-526.191
-589.768
-619.309
-613.135
-576.195
-519.435
-450.778
-379.039
-315.572
-266.505
-235.244
-220.422
-213.004
-205.396
-193.54
-176.804
-159.577
-145.053
-133.7
-124.603
-114.878
-103.007
-89.437
-75.011
-61.218
-49.262
-39.436
-31.929
-26.965
-24.455
-24.188
-25.872
-28.945
-32.79
-37
-41.202
-45.067
-48.432
-51.163
-53.154
-54.397
-54.906
-54.682
-53.755
-52.172
-49.983
-47.27
-44.123
-40.629
-36.896
-33.05
-29.243
-25.606
-22.229
-19.17
-16.458
-14.118
-12.17
-10.614
-9.419
-8.541
-7.934
-7.557
-7.378
-7.351
-7.422
-7.527
-7.594
-7.569
-7.418
-7.111
-6.629
-5.953
-5.066
-3.965
-2.658
-1.151
0.555
2.461
4.572
6.885
9.393
12.089
14.964
18.011
21.227
24.604
28.135
31.814
35.634
39.59
43.678
47.89
52.215
56.642
61.158
65.749
70.402
75.101
79.83
84.573
89.314
94.037
98.726
103.365
107.934
112.417
116.796
121.053
125.171
129.132
132.917
136.511
139.897
143.06
145.984
148.657
151.064
153.192
155.032
156.573
157.805
158.722
159.315
159.58
159.512
159.109
158.367
157.288
155.87
154.116
152.03
149.615
146.879
143.827
140.468
136.813
132.874
128.662
124.192
119.48
114.541
109.395
104.059
98.553
92.897
87.111
81.217
75.234
69.185
63.09
56.97
50.845
44.736
38.662
32.642
26.696
20.842
15.097
9.477
3.999
-1.322
-6.472
-11.437
-16.207
-20.77
-25.116
-29.239
-33.131
-36.786
-40.202
-43.376
-46.308
-48.998
-51.448
-53.661
-55.643
-57.399
-58.936
-60.262
-61.384
-62.312
-63.055
-63.622
-64.025
-64.273
-64.377
-64.347
-64.195
-63.932
-63.567
-63.114
-62.581
-61.98
-61.321
-60.615
-59.871
-59.098
-58.306
-57.503
-56.697
-55.895
-55.104
-54.331
-53.58
-52.856
-52.163
-51.505
-50.883
-50.301
-49.759
-49.259
-48.801
-48.386
-48.014
-47.685
-47.399
-47.155
-46.953
-46.793
-46.674
-46.596
-46.557
-46.557
-46.595
-46.67
-46.781
-46.927
-47.105
-47.316
-47.556
-47.824
-48.119
-48.437
-48.777
-49.136
-49.511
-49.9
-50.299
-50.706
-51.119
-51.532
-51.944
-52.351
-52.75
-53.137
-53.51
-53.863
-54.193
-54.497
-54.77
-55.009
-55.208
-55.364
-55.472
-55.528
-55.528
-55.468
-55.346
-55.16
-54.906
-54.585
-54.195
-53.738
-53.213
-52.623
-51.97
-51.258
-50.491
-49.674
-48.814
-47.917
-46.991
-46.045
-45.087
-44.126
-43.173
-42.235
-41.324
-40.448
-39.619
-38.846
-38.141
-37.514
-36.975
-36.536
-36.208
-35.998
-35.917
-35.969
-36.16
-36.493
-36.967
-37.583
-38.339
-39.23
-40.251
-41.392
-42.645
-44.001
-45.452
-46.986
-48.588
-50.246
-51.943
-53.665
-55.402
-57.139
-58.859
-60.543
-62.169
-63.719
-65.186
-66.557
-67.812
-68.924
-69.853
-70.57
-71.053
-71.281
-71.228
-70.868
-70.177
-69.153
-67.819
-66.215
-64.382
-62.347
-60.114
-57.686
-55.081
-52.353
-49.587
-46.854
-44.187
-41.606
-39.126
-36.814
-34.767
-32.942
-31.123
-28.954
-26.067
-22.314
-17.756
-12.399
-6.107
1.093
8.873
16.425
22.702
27.194
30.021
31.467
31.754
31.318
30.946
32.118
37.057
47.419
63.592
85.549
111.941
139.65
166.821
191.526
212.088
229.664
240.765
237.902
214.484
162.925
84.423
-10.549
-111.808
-208.332
-294.033
-368.973
-431.612
-480.465
-514.043
-529.824
-527.605
-508.722
-475.323
-431.103
-379.982
-325.498
-270.761
-218.013
-169.242
-126.662
-91.571
-64.079
-43.625
-29.008
-18.988
-12.705
-8.875
-5.574
-1.512
3.916
10.919
19.058
27.844
36.986
45.737
52.99
58.129
60.906
61.334
59.843
56.83
52.642
47.909
43.326
39.34
36.227
34.074
32.811
32.423
32.9
34.149
36.045
38.457
41.271
44.421
47.847
51.452
55.095
58.596
61.815
64.671
67.116
69.13
70.702
71.819
72.499
72.795
72.758
72.44
71.887
71.13
70.218
69.215
68.19
67.223
66.377
65.691
65.2
64.928
64.893
65.111
65.586
66.309
67.275
68.485
69.941
71.65
73.613
75.823
78.275
80.963
83.881
87.023
90.385
93.957
97.734
101.707
105.869
110.215
114.733
119.411
124.233
129.183
134.243
139.394
144.616
149.888
155.19
160.499
165.796
171.058
176.264
181.391
186.419
191.323
196.083
200.676
205.08
209.273
213.235
216.946
220.385
223.535
226.376
228.893
231.07
232.893
234.349
235.427
236.117
236.412
236.306
235.794
234.874
233.546
231.81
229.67
227.129
224.196
220.879
217.186
213.13
208.724
203.982
198.921
193.559
187.914
182.008
175.861
169.497
162.938
156.211
149.339
142.348
135.264
128.114
120.923
113.717
106.522
99.363
92.264
85.251
78.345
71.568
64.941
58.485
52.216
46.153
40.311
34.703
29.342
24.238
19.401
14.838
10.554
6.553
2.837
-0.594
-3.742
-6.609
-9.201
-11.524
-13.585
-15.394
-16.959
-18.293
-19.407
-20.314
-21.027
-21.559
-21.926
-22.141
-22.219
-22.174
-22.021
-21.774
-21.446
-21.052
-20.603
-20.112
-19.591
-19.05
-18.5
-17.948
-17.404
-16.875
-16.366
-15.882
-15.427
-15.003
-14.613
-14.256
-13.933
-13.641
-13.378
-13.142
-12.928
-12.732
-12.551
-12.378
-12.208
-12.036
-11.855
-11.661
-11.447
-11.208
-10.937
-10.631
-10.283
-9.89
-9.447
-8.952
-8.401
-7.791
-7.121
-6.39
-5.597
-4.743
-3.828
-2.855
-1.826
-0.745
0.384
1.556
2.764
4.003
5.266
6.546
7.834
9.125
10.41
11.681
12.932
14.154
15.339
16.481
17.572
18.604
19.57
20.462
21.276
22.005
22.643
23.186
23.629
23.968
24.2
24.322
24.332
24.228
24.01
23.676
23.229
22.671
22.003
21.229
20.352
19.377
18.309
17.155
15.918
14.605
13.221
11.772
10.268
8.715
7.121
5.493
3.84
2.174
0.507
-1.149
-2.778
-4.37
-5.913
-7.394
-8.804
-10.135
-11.379
-12.532
-13.594
-14.562
-15.43
-16.195
-16.847
-17.38
-17.797
-18.099
-18.294
-18.389
-18.384
-18.276
-18.063
-17.73
-17.271
-16.674
-15.917
-14.983
-13.868
-12.576
-11.151
-9.639
-8.063
-6.411
-4.657
-2.792
-0.865
1.032
2.824
4.491
6.018
7.306
8.184
8.541
8.406
8.077
8.018
8.429
9.383
11.062
13.419
16.288
19.62
22.574
24.628
26.752
28.319
28.025
23.842
11.091
-9.405
-31.356
-47.602
-48.652
-32.841
-7.267
22.002
48.693
70.79
92.018
112.202
127.616
135.567
133.107
120.338
103.206
83.276
56.468
17.207
-46.319
-138.386
-248.476
-360.381
-449.045
-496.061
-502.33
-476.016
-433.382
-388.922
-343.52
-297.869
-253.299
-211.474
-180.765
-164.556
-159.206
-160.27
-160.274
-155.706
-149.003
-141.875
-136.128
-131.772
-125.899
-117.457
-106.911
-95.201
-84.18
-74.711
-66.673
-60.191
-55.405
-52.272
-50.627
-49.948
-49.514
-48.949
-48.159
-47.094
-45.742
-44.011
-41.766
-38.999
-35.785
-32.18
-28.221
-23.901
-19.217
-14.236
-9.094
-3.953
1.061
5.886
10.493
14.861
18.963
22.758
26.216
29.338
32.13
34.592
36.725
38.523
39.999
41.192
42.166
42.992
43.73
44.416
45.08
45.748
46.443
47.187
47.995
48.869
49.817
50.853
51.995
53.261
54.667
56.217
57.915
59.762
61.76
63.911
66.217
68.679
71.3
74.082
77.028
80.145
83.434
86.893
90.518
94.302
98.237
102.313
106.516
110.834
115.251
119.75
124.314
128.925
133.564
138.209
142.839
147.431
151.963
156.411
160.749
164.955
169.004
172.871
176.534
179.969
183.154
186.067
188.688
190.997
192.976
194.606
195.87
196.754
197.244
197.328
196.995
196.239
195.052
193.432
191.378
188.891
185.973
182.632
178.874
174.709
170.149
165.208
159.903
154.25
148.269
141.98
135.406
128.57
121.496
114.21
106.736
99.101
91.332
83.455
75.498
67.488
59.451
51.414
43.404
35.445
27.564
19.783
12.127
4.617
-2.727
-9.884
-16.838
-23.572
-30.072
-36.325
-42.319
-48.047
-53.5
-58.671
-63.558
-68.156
-72.465
-76.484
-80.215
-83.66
-86.822
-89.707
-92.32
-94.667
-96.756
-98.593
-100.189
-101.551
-102.69
-103.616
-104.339
-104.87
-105.221
-105.401
-105.423
-105.298
-105.037
-104.651
-104.15
-103.545
-102.845
-102.061
-101.201
-100.274
-99.288
-98.251
-97.17
-96.052
-94.904
-93.732
-92.541
-91.338
-90.128
-88.914
-87.702
-86.495
-85.297
-84.11
-82.938
-81.783
-80.646
-79.53
-78.434
-77.36
-76.308
-75.277
-74.267
-73.276
-72.305
-71.351
-70.413
-69.489
-68.579
-67.679
-66.788
-65.905
-65.027
-64.152
-63.277
-62.4
-61.519
-60.63
-59.731
-58.82
-57.894
-56.952
-55.992
-55.014
-54.017
-53
-51.962
-50.906
-49.832
-48.742
-47.638
-46.523
-45.399
-44.271
-43.144
-42.021
-40.908
-39.81
-38.732
-37.679
-36.657
-35.672
-34.727
-33.829
-32.982
-32.192
-31.466
-30.808
-30.225
-29.721
-29.301
-28.968
-28.727
-28.576
-28.516
-28.544
-28.659
-28.858
-29.138
-29.495
-29.926
-30.426
-30.993
-31.621
-32.306
-33.039
-33.813
-34.62
-35.455
-36.308
-37.17
-38.034
-38.89
-39.731
-40.551
-41.339
-42.078
-42.752
-43.335
-43.812
-44.173
-44.403
-44.49
-44.426
-44.211
-43.857
-43.394
-42.841
-42.221
-41.56
-40.874
-40.202
-39.59
-39.069
-38.673
-38.415
-38.301
-38.354
-38.602
-39.056
-39.697
-40.464
-41.259
-41.991
-42.564
-42.889
-42.846
-42.233
-40.962
-39.081
-36.748
-34.313
-32.077
-30.137
-28.69
-28.06
-28.198
-28.839
-29.413
-28.707
-25.81
-20.35
-11.816
0.011
14.448
30.437
46.102
58.363
64.632
62.827
50.665
26.935
-8.125
-53.531
-106.799
-163.972
-221.393
-275.002
-320.313
-354.33
-375.153
-382.954
-379.491
-365.751
-343.632
-313.731
-276.945
-239.013
-203.729
-175.383
-158.34
-148.32
-141.631
-135.102
-123.672
-109.107
-93.648
-77.714
-63.254
-49.805
-36.561
-24.313
-13.53
-4.581
2.205
7.016
10.229
12.025
12.602
12.295
11.393
10.106
8.633
7.083
5.511
4.054
2.85
1.974
1.497
1.451
1.828
2.63
3.833
5.382
7.206
9.202
11.278
13.346
15.311
17.101
18.664
19.946
20.908
21.531
21.796
21.702
21.271
20.518
19.471
18.164
16.636
14.936
13.116
11.231
9.339
7.491
5.723
4.066
2.547
1.186
0.002
-0.994
-1.798
-2.405
-2.808
-3
-2.975
-2.73
-2.267
-1.589
-0.7
0.396
1.695
3.194
4.891
6.781
8.862
11.129
13.581
16.212
19.014
21.978
25.092
28.345
31.724
35.216
38.806
42.479
46.222
50.018
53.853
57.713
61.58
65.44
69.275
73.069
76.806
80.469
84.043
87.511
90.858
94.068
97.127
100.02
102.735
105.256
107.572
109.671
111.54
113.17
114.55
115.673
116.53
117.115
117.424
117.453
117.197
116.657
115.832
114.722
113.331
111.661
109.717
107.505
105.033
102.308
99.341
96.142
92.722
89.095
85.275
81.277
77.116
72.809
68.374
63.828
59.191
54.481
49.718
44.922
40.112
35.31
30.533
25.804
21.139
16.559
12.082
7.725
3.506
-0.561
-4.46
-8.177
-11.701
-15.021
-18.126
-21.008
-23.662
-26.081
-28.261
-30.199
-31.896
-33.351
-34.566
-35.545
-36.292
-36.814
-37.117
-37.21
-37.104
-36.809
-36.336
-35.699
-34.911
-33.985
-32.936
-31.779
-30.529
-29.202
-27.812
-26.376
-24.907
-23.421
-21.931
-20.451
-18.992
-17.566
-16.184
-14.855
-13.588
-12.39
-11.268
-10.226
-9.269
-8.401
-7.621
-6.932
-6.332
-5.82
-5.394
-5.049
-4.782
-4.587
-4.457
-4.387
-4.368
-4.392
-4.452
-4.538
-4.641
-4.753
-4.865
-4.967
-5.053
-5.112
-5.137
-5.122
-5.06
-4.945
-4.772
-4.537
-4.236
-3.869
-3.433
-2.928
-2.356
-1.717
-1.015
-0.251
0.57
1.443
2.364
3.326
4.324
5.35
6.396
7.455
8.518
9.576
10.621
11.644
12.636
13.59
14.498
15.353
16.147
16.875
17.529
18.105
18.598
19.004
19.318
19.54
19.671
19.714
19.673
19.551
19.355
19.089
18.76
18.376
17.939
17.453
16.922
16.352
15.751
15.127
14.49
13.845
13.204
12.576
11.969
11.395
10.858
10.362
9.914
9.522
9.2
8.968
8.838
8.818
8.912
9.118
9.435
9.855
10.357
10.909
11.483
12.046
12.57
13.033
13.399
13.639
13.73
13.635
13.328
12.812
12.092
11.185
10.133
8.962
7.7
6.416
5.183
4.085
3.223
2.692
2.561
2.911
3.847
5.391
7.467
9.922
12.501
14.898
16.846
18.133
18.557
18.173
17.3
16.28
15.499
15.601
17.341
20.939
26.366
32.302
35.718
35.289
30.815
22.865
14.61
5.978
-6.71
-27.572
-63.777
-118.803
-188.884
-266.041
-335.893
-383.905
-402.608
-391.406
-358.084
-315.69
-274.373
-239.626
-212.325
-188.339
-164.342
-140.289
-117.203
-97.354
-82.137
-70.115
-59.247
-48.394
-37.01
-25.143
-13.295
-1.5
10.362
21.525
31.216
39.128
45.015
49.003
51.447
52.437
52.091
50.869
49.164
47.235
45.338
43.527
41.833
40.424
39.413
38.838
38.727
39.061
39.805
40.957
42.487
44.295
46.269
48.281
50.205
51.975
53.544
54.872
55.928
56.674
57.091
57.181
56.956
56.431
55.627
54.563
53.27
51.805
50.229
48.609
47.018
45.505
44.107
42.859
41.783
40.9
40.226
39.767
39.521
39.49
39.678
40.091
40.731
41.595
42.673
43.956
45.431
47.086
48.913
50.9
53.037
55.315
57.727
60.265
62.923
65.693
68.564
71.524
74.559
77.656
80.8
83.979
87.176
90.379
93.572
96.743
99.881
102.971
106.003
108.964
111.842
114.626
117.305
119.868
122.306
124.61
126.77
128.78
130.632
132.321
133.84
135.185
136.35
137.332
138.125
138.726
139.132
139.339
139.345
139.148
138.747
138.141
137.329
136.314
135.094
133.674
132.054
130.237
128.227
126.029
123.646
121.086
118.353
115.456
112.402
109.199
105.857
102.386
98.795
95.094
91.293
87.405
83.439
79.408
75.322
71.195
67.039
62.865
58.689
54.522
50.378
46.27
42.213
38.219
34.302
30.475
26.749
23.139
19.654
16.306
13.105
10.061
7.181
4.473
1.942
-0.406
-2.568
-4.541
-6.324
-7.917
-9.321
-10.536
-11.566
-12.413
-13.083
-13.58
-13.91
-14.08
-14.098
-13.973
-13.713
-13.328
-12.83
-12.229
-11.539
-10.771
-9.938
-9.055
-8.135
-7.191
-6.238
-5.289
-4.359
-3.459
-2.604
-1.804
-1.07
-0.412
0.159
0.637
1.014
1.285
1.444
1.487
1.412
1.217
0.902
0.465
-0.091
-0.765
-1.554
-2.453
-3.459
-4.565
-5.764
-7.05
-8.414
-9.847
-11.339
-12.88
-14.458
-16.063
-17.682
-19.303
-20.914
-22.503
-24.057
-25.565
-27.014
-28.395
-29.697
-30.91
-32.026
-33.037
-33.938
-34.724
-35.39
-35.934
-36.353
-36.648
-36.819
-36.866
-36.793
-36.602
-36.296
-35.882
-35.366
-34.754
-34.053
-33.273
-32.423
-31.514
-30.558
-29.564
-28.545
-27.511
-26.474
-25.449
-24.447
-23.481
-22.562
-21.701
-20.912
-20.206
-19.594
-19.081
-18.669
-18.358
-18.151
-18.049
-18.05
-18.153
-18.355
-18.654
-19.054
-19.56
-20.174
-20.895
-21.716
-22.63
-23.633
-24.724
-25.901
-27.165
-28.509
-29.928
-31.417
-32.971
-34.576
-36.216
-37.857
-39.461
-41
-42.443
-43.772
-44.988
-46.08
-47.044
-47.877
-48.552
-49.072
-49.47
-49.779
-50.07
-50.393
-50.739
-51.157
-51.752
-52.547
-53.556
-54.646
-55.456
-55.812
-55.751
-55.299
-54.578
-53.722
-52.704
-51.901
-52.168
-53.988
-57.543
-62.716
-68.827
-75.338
-82.077
-88.245
-92.322
-93.01
-89.098
-79.964
-66.107
-47.932
-25.465
0.404
27.638
53.679
75.507
90.414
96.646
92.538
76.163
46.291
4.531
-46.174
-103.627
-164.188
-226.813
-290.69
-348.357
-394.168
-422.964
-429.935
-420.094
-398.826
-370.483
-341.288
-311.974
-283.089
-256.34
-231.436
-209.582
-191.579
-176.729
-164.553
-153.88
-143.317
-132.31
-120.706
-108.616
-96.487
-84.794
-73.94
-64.389
-56.573
-50.639
-46.531
-44.092
-43.037
-43.06
-43.859
-45.101
-46.467
-47.765
-48.869
-49.675
-50.102
-50.025
-49.338
-48
-45.994
-43.337
-40.06
-36.201
-31.819
-27.03
-21.974
-16.789
-11.616
-6.54
-1.62
3.081
7.512
11.615
15.347
18.692
21.648
24.212
26.384
28.168
29.578
30.656
31.452
32.016
32.406
32.66
32.806
32.873
32.88
32.846
32.786
32.707
32.613
32.512
32.418
32.345
32.308
32.316
32.377
32.497
32.681
32.94
33.281
33.714
34.251
34.905
35.688
36.616
37.703
38.961
40.401
42.031
43.855
45.877
48.101
50.528
53.155
55.981
59.002
62.214
65.611
69.184
72.925
76.821
80.859
85.024
89.3
93.667
98.108
102.601
107.125
111.657
116.175
120.655
125.073
129.406
133.627
137.713
141.638
145.377
148.906
152.202
155.242
158.005
160.469
162.618
164.433
165.899
167.002
167.732
168.077
168.031
167.586
166.741
165.492
163.843
161.796
159.356
156.533
153.337
149.781
145.878
141.647
137.105
132.273
127.173
121.829
116.264
110.507
104.582
98.52
92.349
86.098
79.797
73.475
67.163
60.889
54.683
48.572
42.584
36.745
31.079
25.612
20.364
15.356
10.607
6.133
1.949
-1.932
-5.501
-8.748
-11.667
-14.256
-16.511
-18.434
-20.026
-21.294
-22.242
-22.881
-23.22
-23.271
-23.05
-22.57
-21.849
-20.905
-19.757
-18.425
-16.929
-15.292
-13.535
-11.679
-9.748
-7.762
-5.745
-3.717
-1.699
0.288
2.225
4.094
5.878
7.56
9.127
10.563
11.859
13.003
13.987
14.804
15.449
15.917
16.207
16.319
16.253
16.013
15.602
15.028
14.296
13.416
12.396
11.247
9.981
8.61
7.146
5.604
3.998
2.341
0.65
-1.061
-2.777
-4.482
-6.163
-7.803
-9.389
-10.909
-12.348
-13.694
-14.937
-16.066
-17.071
-17.945
-18.68
-19.271
-19.713
-20.002
-20.137
-20.117
-19.942
-19.614
-19.135
-18.51
-17.741
-16.835
-15.798
-14.635
-13.355
-11.965
-10.476
-8.896
-7.237
-5.509
-3.724
-1.895
-0.033
1.85
3.74
5.626
7.496
9.338
11.139
12.889
14.575
16.188
17.718
19.155
20.492
21.721
22.837
23.835
24.711
25.462
26.085
26.579
26.942
27.172
27.27
27.236
27.072
26.781
26.367
25.837
25.201
24.466
23.641
22.736
21.761
20.724
19.636
18.503
17.334
16.136
14.918
13.688
12.454
11.225
10.009
8.814
7.644
6.506
5.407
4.353
3.349
2.403
1.522
0.719
0.01
-0.592
-1.077
-1.436
-1.666
-1.768
-1.75
-1.631
-1.439
-1.21
-0.985
-0.806
-0.715
-0.743
-0.922
-1.281
-1.853
-2.668
-3.742
-5.088
-6.724
-8.654
-10.852
-13.272
-15.816
-18.343
-20.741
-22.854
-24.468
-25.511
-26.02
-26.103
-26.06
-26.162
-26.532
-27.444
-29.247
-31.843
-34.877
-37.736
-39.281
-38.669
-35.515
-29.23
-19.432
-6.731
7.692
22.049
33.591
39.751
38.334
27.001
3.907
-30.231
-72.647
-121.75
-175.524
-232.993
-295.535
-357.853
-410.541
-447.163
-459.882
-447.416
-418.151
-376.9
-329.554
-284.479
-242.17
-204.977
-176.792
-153.965
-135.616
-120.943
-105.593
-90.231
-75.52
-61.036
-48.138
-36.079
-23.71
-10.886
2.266
14.634
25.182
33.558
39.718
43.913
46.318
46.897
45.905
43.819
41.065
38.074
35.099
32.241
29.628
27.392
25.6
24.283
23.436
23.018
22.998
23.335
23.968
24.829
25.819
26.841
27.794
28.555
29.028
29.142
28.84
28.106
26.937
25.325
23.286
20.855
18.072
14.995
11.682
8.178
4.545
0.85
-2.835
-6.425
-9.855
-13.075
-16.04
-18.717
-21.077
-23.092
-24.745
-26.031
-26.939
-27.464
-27.597
-27.328
-26.651
-25.57
-24.087
-22.21
-19.947
-17.303
-14.286
-10.907
-7.178
-3.11
1.283
5.989
10.992
16.27
21.802
27.562
33.524
39.662
45.947
52.348
58.837
65.383
71.956
78.527
85.066
91.542
97.927
104.191
110.305
116.241
121.972
127.471
132.712
137.673
142.331
146.666
150.659
154.292
157.549
160.418
162.887
164.944
166.584
167.799
168.585
168.941
168.867
168.366
167.442
166.101
164.352
162.206
159.674
156.769
153.506
149.902
145.973
141.74
137.221
132.439
127.415
122.172
116.735
111.127
105.374
99.499
93.528
87.485
81.396
75.283
69.172
63.085
57.045
51.076
45.198
39.432
33.798
28.315
23
17.869
12.938
8.219
3.724
-0.534
-4.548
-8.31
-11.812
-15.051
-18.022
-20.725
-23.158
-25.324
-27.224
-28.863
-30.246
-31.379
-32.269
-32.925
-33.356
-33.571
-33.581
-33.397
-33.031
-32.497
-31.807
-30.975
-30.016
-28.943
-27.771
-26.516
-25.193
-23.815
-22.399
-20.959
-19.509
-18.063
-16.636
-15.24
-13.889
-12.594
-11.366
-10.217
-9.156
-8.193
-7.335
-6.589
-5.964
-5.463
-5.093
-4.858
-4.762
-4.806
-4.994
-5.325
-5.801
-6.42
-7.18
-8.078
-9.111
-10.273
-11.56
-12.964
-14.478
-16.093
-17.802
-19.594
-21.458
-23.385
-25.362
-27.379
-29.421
-31.479
-33.538
-35.587
-37.612
-39.603
-41.545
-43.428
-45.239
-46.967
-48.6
-50.127
-51.537
-52.822
-53.97
-54.975
-55.828
-56.523
-57.053
-57.414
-57.603
-57.617
-57.455
-57.117
-56.604
-55.919
-55.064
-54.045
-52.868
-51.54
-50.068
-48.462
-46.731
-44.886
-42.939
-40.902
-38.785
-36.604
-34.37
-32.098
-29.801
-27.494
-25.189
-22.903
-20.648
-18.438
-16.287
-14.208
-12.212
-10.312
-8.519
-6.842
-5.292
-3.875
-2.599
-1.47
-0.493
0.328
0.991
1.495
1.839
2.026
2.057
1.937
1.669
1.26
0.715
0.042
-0.753
-1.662
-2.676
-3.786
-4.982
-6.256
-7.596
-8.993
-10.437
-11.917
-13.423
-14.945
-16.473
-17.999
-19.513
-21.006
-22.471
-23.9
-25.286
-26.623
-27.905
-29.126
-30.283
-31.373
-32.394
-33.346
-34.227
-35.039
-35.78
-36.453
-37.059
-37.597
-38.066
-38.464
-38.793
-39.053
-39.244
-39.369
-39.428
-39.423
-39.358
-39.239
-39.068
-38.848
-38.582
-38.272
-37.923
-37.538
-37.121
-36.671
-36.185
-35.664
-35.108
-34.515
-33.878
-33.184
-32.415
-31.56
-30.609
-29.556
-28.39
-27.107
-25.708
-24.209
-22.642
-21.042
-19.446
-17.885
-16.388
-14.992
-13.744
-12.684
-11.845
-11.247
-10.897
-10.817
-11.042
-11.569
-12.358
-13.324
-14.331
-15.246
-15.959
-16.313
-16.11
-15.232
-13.656
-11.494
-9.017
-6.471
-3.971
-1.693
0.1
1.404
2.471
3.88
6.559
11.198
18.077
27.499
39.759
54.453
70.483
85.906
98.118
105.055
104.984
95.873
76.055
44.818
3.537
-43.838
-94.194
-145.846
-198.742
-254.565
-310.03
-358.02
-390.525
-399.397
-383.623
-349.818
-308.811
-271.61
-245.299
-230.773
-222.254
-214.814
-205.396
-192.279
-178.743
-166.574
-155.277
-145.365
-135.464
-124.605
-113.454
-102.188
-91.179
-81.128
-72.364
-64.993
-59.107
-54.582
-51.103
-48.415
-46.254
-44.299
-42.339
-40.257
-37.954
-35.404
-32.62
-29.569
-26.233
-22.599
-18.619
-14.271
-9.557
-4.496
0.841
6.344
11.873
17.294
22.507
27.449
32.083
36.387
40.352
43.972
47.259
50.22
52.838
55.1
56.994
58.52
59.705
60.591
61.235
61.688
61.999
62.205
62.337
62.418
62.462
62.478
62.468
62.436
62.397
62.366
62.363
62.405
62.502
62.662
62.891
63.195
63.575
64.032
64.567
65.182
65.88
66.666
67.545
68.52
69.593
70.765
72.032
73.393
74.843
76.375
77.984
79.661
81.4
83.193
85.035
86.916
88.83
90.767
92.721
94.682
96.64
98.588
100.514
102.408
104.262
106.066
107.81
109.485
111.083
112.597
114.02
115.346
116.569
117.684
118.685
119.57
120.335
120.976
121.492
121.882
122.144
122.278
122.288
122.175
121.941
121.583
121.102
120.497
119.772
118.932
117.979
116.905
115.72
114.446
113.1
111.704
110.262
108.75
107.169
105.554
103.886
102.105
100.166
98.016
95.654
93.17
90.585
87.814
84.958
82.338
80.014
77.895
76.027
74.054
72.661
73.826
77.034
80.508
81.177
73.393
57.745
39.843
25.356
22.325
30.929
43.633
54.636
57.574
51.594
42.346
33.227
26.655
23.254
20.719
18.056
15.314
12.439
9.802
7.445
5.039
2.482
-0.199
-2.982
-5.824
-8.733
-11.74
-14.674
-17.319
-19.746
-21.963
-23.94
-26.005
-27.24
-26.75
-25.796
-24.764
-25.976
-32.209
-40.374
-48.411
-53.256
-50.704
-44.47
-37.706
-32.57
-32.631
-35.339
-38.111
-40.374
-40.557
-39.578
-38.623
-37.472
-36.283
-34.988
-33.356
-31.554
-29.717
-27.816
-25.852
-23.853
-21.827
-19.776
-17.708
-15.613
-13.475
-11.317
-9.161
-7.014
-4.887
-2.791
-0.734
1.272
3.214
5.086
6.881
8.592
10.212
11.736
13.157
14.47
15.671
16.755
17.72
18.561
19.277
19.866
20.326
20.656
20.855
20.924
20.863
20.671
20.35
19.9
19.323
18.618
17.789
16.835
15.759
14.563
13.247
11.814
10.266
8.604
6.832
4.951
2.963
0.872
-1.319
-3.606
-5.985
-8.451
-11
-13.624
-16.318
-19.073
-21.883
-24.739
-27.631
-30.551
-33.489
-36.433
-39.374
-42.299
-45.198
-48.058
-50.867
-53.611
-56.28
-58.858
-61.334
-63.694
-65.925
-68.014
-69.948
-71.715
-73.304
-74.703
-75.901
-76.888
-77.657
-78.2
-78.511
-78.584
-78.417
-78.008
-77.356
-76.463
-75.333
-73.968
-72.376
-70.563
-68.537
-66.31
-63.89
-61.29
-58.522
-55.599
-52.536
-49.348
-46.052
-42.662
-39.197
-35.673
-32.108
-28.519
-24.925
-21.341
-17.786
-14.275
-10.824
-7.449
-4.164
-0.979
2.091
5.038
7.851
10.523
13.048
15.421
17.639
19.701
21.603
23.348
24.935
26.366
27.644
28.769
29.743
30.57
31.253
31.798
32.209
32.492
32.652
32.7
32.643
32.489
32.244
31.912
31.498
31.006
30.441
29.803
29.093
28.31
27.453
26.529
25.536
24.473
23.331
22.097
20.766
19.337
17.814
16.196
14.492
12.712
10.875
9.018
7.164
5.332
3.535
1.774
0.06
-1.583
-3.141
-4.605
-5.975
-7.269
-8.506
-9.697
-10.889
-12.149
-13.555
-15.211
-17.196
-19.556
-22.348
-25.622
-29.428
-33.824
-38.834
-44.447
-50.653
-57.419
-64.697
-72.433
-80.485
-88.659
-96.759
-104.585
-111.973
-118.774
-124.783
-129.756
-133.473
-135.736
-136.411
-135.371
-132.414
-127.426
-120.454
-111.708
-101.662
-90.823
-79.521
-68.11
-57.062
-46.623
-36.776
-27.179
-16.945
-5.217
8.384
24.14
42.334
62.685
84.213
105.197
123.026
135.012
139.074
133.264
115.652
85.253
42.403
-11.232
-72.614
-138.129
-204.263
-267.134
-322.308
-365.995
-395.657
-410.042
-409.333
-394.581
-367.318
-330.035
-286.448
-240.454
-195.49
-154.461
-119.306
-91.355
-71.41
-59.3
-53.703
-52.763
-54.505
-56.943
-58.674
-58.647
-56.15
-51.107
-43.967
-35.469
-26.546
-18.191
-11.001
-5.334
-1.332
1.175
2.409
2.643
2.265
1.681
1.146
0.819
0.781
1.018
1.561
2.426
3.562
4.889
6.318
7.763
9.146
10.413
11.505
12.363
12.944
13.231
13.224
12.924
12.321
11.387
10.101
8.486
6.611
4.556
2.395
0.192
-1.995
-4.101
-6.046
-7.747
-9.135
-10.166
-10.802
-10.993
-10.666
-9.731
-8.141
-5.913
-3.118
0.173
3.92
8.096
12.683
17.645
22.93
28.49
34.3
40.343
46.592
52.993
59.465
65.913
72.288
78.587
84.846
91.093
97.33
103.547
109.733
115.894
122.033
128.137
134.172
140.099
145.898
151.564
157.112
162.56
167.903
173.115
178.161
183.01
187.639
192.032
196.168
200.021
203.572
206.816
209.761
212.417
214.785
216.861
218.638
220.109
221.276
222.14
222.707
222.979
222.961
222.659
222.081
221.237
220.134
218.778
217.17
215.311
213.204
210.855
208.268
205.446
202.393
199.114
195.614
191.901
187.978
183.851
179.524
175.002
170.289
165.392
160.315
155.064
149.646
144.069
138.341
132.469
126.465
120.336
114.095
107.751
101.316
94.802
88.221
81.586
74.91
68.206
61.49
54.775
48.076
41.409
34.79
28.235
21.759
15.38
9.113
2.974
-3.02
-8.854
-14.511
-19.976
-25.234
-30.272
-35.074
-39.628
-43.924
-47.949
-51.696
-55.157
-58.324
-61.193
-63.758
-66.019
-67.972
-69.618
-70.958
-71.993
-72.728
-73.167
-73.315
-73.179
-72.767
-72.089
-71.154
-69.974
-68.56
-66.925
-65.084
-63.051
-60.841
-58.471
-55.957
-53.317
-50.567
-47.726
-44.811
-41.84
-38.83
-35.797
-32.759
-29.73
-26.727
-23.764
-20.854
-18.012
-15.249
-12.577
-10.009
-7.554
-5.222
-3.022
-0.963
0.946
2.7
4.292
5.716
6.967
8.041
8.935
9.645
10.172
10.513
10.669
10.642
10.433
10.045
9.483
8.751
7.854
6.799
5.591
4.238
2.747
1.124
-0.621
-2.48
-4.444
-6.504
-8.65
-10.871
-13.156
-15.495
-17.877
-20.288
-22.718
-25.153
-27.58
-29.987
-32.359
-34.682
-36.943
-39.125
-41.217
-43.205
-45.075
-46.816
-48.416
-49.866
-51.157
-52.28
-53.228
-53.994
-54.571
-54.954
-55.14
-55.124
-54.904
-54.479
-53.848
-53.015
-51.985
-50.761
-49.352
-47.762
-45.993
-44.056
-41.965
-39.717
-37.318
-34.777
-32.093
-29.287
-26.404
-23.453
-20.441
-17.433
-14.462
-11.55
-8.757
-6.084
-3.456
-0.89
1.564
4.068
6.754
9.458
12.205
15.066
17.531
20.416
24.765
29.202
33.283
34.84
29.96
21.075
11.674
5.441
9.24
21.865
36.822
49.723
53.658
47.164
36.782
26.315
19.64
19.373
21.688
24.221
26.222
26.163
25.19
24.301
23.127
21.866
20.47
18.708
16.767
14.816
12.831
10.836
8.886
6.97
5.087
3.286
1.598
0.088
-1.118
-1.928
-2.27
-2.088
-1.391
-0.217
1.367
3.258
5.376
7.652
10.014
12.397
14.727
16.903
18.827
20.365
21.336
21.575
20.917
19.227
16.475
12.691
7.967
2.454
-3.703
-10.366
-17.376
-24.565
-31.786
-38.89
-45.751
-52.231
-58.132
-63.252
-67.371
-70.306
-71.971
-72.347
-71.473
-69.444
-66.377
-62.4
-57.684
-52.421
-46.76
-40.826
-34.71
-28.493
-22.301
-16.283
-10.597
-5.383
-0.726
3.324
6.742
9.538
11.755
13.455
14.743
15.749
16.558
17.231
17.809
18.301
18.739
19.176
19.654
20.217
20.9
21.73
22.733
23.908
25.22
26.615
28.016
29.317
30.443
31.321
31.874
32.083
31.93
31.397
30.496
29.22
27.545
25.442
22.911
20.001
16.808
13.466
10.123
6.941
4.12
1.933
0.553
-0.005
0.155
0.748
1.485
2.24
2.798
2.867
2.484
1.912
1.705
2.898
6.328
12.394
21.574
34.188
49.732
67.223
84.842
99.66
109.004
110.662
103.052
85.861
59.44
23.655
-23.525
-84.762
-159.666
-242.292
-319.735
-377.265
-406.876
-410.511
-398.383
-381.526
-365.765
-350.279
-330.588
-305.022
-274.736
-242.465
-212.373
-186.746
-166.391
-152.34
-144.427
-141.581
-143.015
-147.713
-154.283
-161.524
-168.285
-173.264
-175.783
-175.79
-173.355
-168.798
-162.734
-155.881
-148.844
-142.16
-136.119
-130.727
-125.947
-121.685
-117.719
-113.735
-109.529
-104.981
-100.058
-94.889
-89.586
-84.219
-78.902
-73.734
-68.784
-64.117
-59.76
-55.674
-51.841
-48.249
-44.879
-41.747
-38.852
-36.175
-33.713
-31.443
-29.34
-27.393
-25.583
-23.887
-22.287
-20.759
-19.282
-17.848
-16.447
-15.063
-13.683
-12.285
-10.851
-9.369
-7.823
-6.2
-4.49
-2.676
-0.75
1.298
3.475
5.785
8.232
10.82
13.55
16.419
19.424
22.56
25.82
29.195
32.677
36.254
39.913
43.642
47.424
51.244
55.086
58.932
62.763
66.561
70.307
73.983
77.57
81.049
84.403
87.614
90.666
93.542
96.227
98.707
100.971
103.006
104.803
106.355
107.654
108.697
109.482
110.007
110.274
110.285
110.045
109.559
108.834
107.878
106.703
105.317
103.735
101.969
100.032
97.941
95.709
93.352
90.887
88.327
85.689
82.988
80.238
77.454
74.649
71.838
69.032
66.245
63.486
60.767
58.096
55.481
52.93
50.448
48.039
45.707
43.455
41.284
39.196
37.189
35.264
33.418
31.649
29.954
28.328
26.768
25.269
23.826
22.435
21.09
19.789
18.527
17.3
16.107
14.945
13.812
12.707
11.629
10.576
9.548
8.545
7.568
6.618
5.696
4.807
3.952
3.135
2.361
1.635
0.96
0.342
-0.215
-0.706
-1.126
-1.469
-1.731
-1.907
-1.991
-1.979
-1.866
-1.65
-1.329
-0.902
-0.371
0.264
0.998
1.825
2.741
3.738
4.808
5.946
7.143
8.393
9.687
11.018
12.378
13.756
15.142
16.522
17.88
19.199
20.463
21.655
22.759
23.762
24.649
25.408
26.032
26.508
26.825
26.966
26.913
26.652
26.174
25.48
24.576
23.477
22.209
20.798
19.278
17.672
15.996
14.252
12.429
10.513
8.491
6.362
4.142
1.842
-0.529
-2.968
-5.478
-8.081
-10.812
-13.715
-16.846
-20.237
-23.895
-27.79
-31.86
-36.023
-40.178
-44.246
-48.172
-51.901
-55.391
-58.594
-61.462
-63.933
-65.929
-67.356
-68.101
-68.082
-67.251
-65.606
-63.195
-60.099
-56.435
-52.302
-47.782
-42.949
-37.857
-32.559
-27.107
-21.558
-15.976
-10.449
-5.085
0.023
4.801
9.213
13.26
16.972
20.406
23.613
26.634
29.499
32.221
34.806
37.256
39.566
41.734
43.769
45.702
47.557
49.36
51.118
52.826
54.465
56.006
57.422
58.689
59.789
60.714
61.463
62.042
62.461
62.736
62.878
62.89
62.78
62.55
62.207
61.758
61.214
60.587
59.891
59.139
58.338
57.494
56.608
55.68
54.71
53.697
52.636
51.525
50.362
49.146
47.883
46.573
45.214
43.796
42.309
40.749
39.128
37.46
35.759
34.032
32.291
30.552
28.839
27.168
25.536
23.924
22.309
20.683
19.056
17.45
15.891
14.383
12.915
11.469
10.042
8.63
7.222
5.786
4.276
2.679
1.026
-0.607
-2.145
-3.545
-4.786
-5.869
-6.785
-7.507
-8
-8.234
-8.2
-7.881
-7.245
-6.225
-4.742
-2.769
-0.342
2.447
5.508
8.785
12.243
15.855
19.577
23.355
27.139
30.901
34.622
38.271
41.793
45.101
48.102
50.744
53.032
55.008
56.711
58.156
59.351
60.306
61.044
61.588
61.944
62.098
62.033
61.746
61.251
60.584
59.781
58.862
57.831
56.675
55.389
53.97
52.416
50.724
48.9
46.957
44.927
42.858
40.79
38.764
36.83
35.018
33.355
31.847
30.467
29.204
28.05
27.014
26.139
25.421
24.817
24.267
23.697
23.062
22.387
21.619
20.611
19.337
17.854
16.429
15.561
15.496
16.208
17.681
19.916
22.867
26.407
29.856
31.991
32.103
30.089
26.201
20.95
14.773
8.363
3.37
2.19
6.602
17.609
35.533
59.939
90.352
124.394
157.069
184.574
204.155
215.122
220.262
216.505
197.379
159.237
96.659
12.137
-85.603
-191.503
-296.312
-389.966
-464.526
-511.425
-526.728
-513.147
-478.058
-427.981
-370.983
-315.453
-265.252
-226.695
-201.516
-184.885
-174.451
-165.664
-156.628
-150.698
-148.723
-150.915
-156.246
-161.266
-164.018
-164.004
-161.203
-156.466
-150.571
-144.002
-137.494
-131.548
-126.46
-122.361
-119.078
-116.398
-114.091
-111.834
-109.253
-106.077
-102.117
-97.302
-91.7
-85.373
-78.411
-70.954
-63.169
-55.245
-47.344
-39.581
-32.039
-24.776
-17.829
-11.241
-5.048
0.731
6.059
10.913
15.284
19.155
22.526
25.413
27.844
29.872
31.553
32.933
34.052
34.942
35.628
36.138
36.499
36.727
36.845
36.874
36.837
36.765
36.689
36.635
36.624
36.678
36.816
37.065
37.452
38.002
38.737
39.679
40.849
42.27
43.964
45.946
48.223
50.804
53.696
56.911
60.464
64.355
68.573
73.097
77.898
82.946
88.216
93.671
99.262
104.959
110.732
116.57
122.482
128.456
134.467
140.475
146.42
152.26
157.973
163.539
168.943
174.181
179.232
184.1
188.814
193.359
197.698
201.766
205.444
208.65
211.344
213.495
215.112
216.198
216.723
216.662
216
214.698
212.738
210.077
206.626
202.354
197.273
191.422
184.901
177.778
170.051
161.703
152.696
142.977
132.547
121.423
109.601
97.119
84.024
70.379
56.313
41.925
27.274
12.408
-2.634
-17.777
-32.851
-47.633
-61.904
-75.421
-87.98
-99.432
-109.611
-118.391
-125.69
-131.445
-135.635
-138.255
-139.259
-138.598
-136.283
-132.373
-127.025
-120.494
-113.023
-104.883
-96.349
-87.631
-78.935
-70.448
-62.292
-54.575
-47.404
-40.865
-35.085
-30.218
-26.334
-23.462
-21.572
-20.53
-20.208
-20.457
-21.087
-21.957
-22.954
-23.978
-24.984
-25.953
-26.834
-27.591
-28.161
-28.445
-28.388
-27.965
-27.162
-26.029
-24.623
-23.015
-21.315
-19.617
-17.974
-16.432
-15
-13.662
-12.425
-11.289
-10.252
-9.341
-8.57
-7.946
-7.481
-7.167
-6.981
-6.897
-6.866
-6.841
-6.795
-6.711
-6.581
-6.413
-6.211
-5.981
-5.742
-5.504
-5.274
-5.06
-4.864
-4.693
-4.561
-4.482
-4.477
-4.568
-4.773
-5.109
-5.592
-6.234
-7.046
-8.036
-9.207
-10.561
-12.102
-13.832
-15.754
-17.87
-20.177
-22.675
-25.359
-28.223
-31.261
-34.462
-37.812
-41.299
-44.906
-48.618
-52.415
-56.279
-60.189
-64.125
-68.065
-71.986
-75.866
-79.681
-83.407
-87.021
-90.498
-93.815
-96.95
-99.881
-102.587
-105.049
-107.251
-109.177
-110.814
-112.149
-113.172
-113.875
-114.252
-114.3
-114.016
-113.4
-112.455
-111.185
-109.598
-107.702
-105.508
-103.029
-100.279
-97.275
-94.033
-90.573
-86.914
-83.079
-79.09
-74.97
-70.743
-66.434
-62.067
-57.668
-53.262
-48.872
-44.525
-40.242
-36.045
-31.956
-27.995
-24.179
-20.524
-17.046
-13.758
-10.671
-7.795
-5.138
-2.708
-0.51
1.452
3.176
4.661
5.907
6.917
7.694
8.243
8.569
8.68
8.584
8.29
7.809
7.153
6.332
5.361
4.253
3.024
1.686
0.256
-1.251
-2.822
-4.442
-6.098
-7.777
-9.47
-11.166
-12.854
-14.525
-16.169
-17.778
-19.341
-20.848
-22.286
-23.647
-24.92
-26.098
-27.173
-28.138
-28.99
-29.726
-30.341
-30.835
-31.206
-31.45
-31.566
-31.557
-31.423
-31.166
-30.792
-30.299
-29.692
-28.978
-28.154
-27.218
-26.16
-24.959
-23.604
-22.092
-20.415
-18.571
-16.565
-14.404
-12.115
-9.745
-7.334
-4.933
-2.588
-0.331
1.785
3.701
5.355
6.675
7.627
8.207
8.393
8.168
7.524
6.479
5.127
3.64
2.155
0.817
-0.248
-0.9
-0.88
-0.004
1.772
4.356
7.477
10.899
14.532
18.168
21.432
24.208
26.569
28.961
32.28
36.929
43.211
51.83
62.981
76.447
90.591
101.289
105.981
104.098
96.43
87.58
77.325
59.622
28.748
-26.032
-109.465
-212.766
-324.555
-424.95
-493.265
-525.226
-523.429
-498.681
-469.06
-442.455
-420.621
-402.819
-383.496
-360.846
-336.563
-312.063
-289.408
-269.277
-250.665
-232.307
-213.019
-192.305
-170.227
-147.118
-123.536
-100.031
-77.229
-55.86
-36.541
-19.604
-5.146
6.908
16.721
24.447
30.291
34.529
37.478
39.421
40.55
41.027
41.018
40.745
40.497
40.5
40.889
41.744
43.094
44.962
47.376
50.319
53.713
57.465
61.466
65.62
69.862
74.108
78.246
82.132
85.605
88.557
90.938
92.73
93.931
94.545
94.586
94.106
93.178
91.868
90.22
88.25
85.978
83.453
80.748
77.961
75.18
72.45
69.802
67.25
64.806
62.483
60.269
58.111
55.985
53.903
51.919
50.144
48.657
47.502
46.706
46.274
46.226
46.612
47.465
48.81
50.683
53.115
56.171
59.958
64.522
69.857
75.904
82.534
89.653
97.199
105.111
113.334
121.81
130.46
139.23
148.088
156.979
165.84
174.575
183.05
191.178
198.917
206.258
213.239
219.878
226.162
232.092
237.667
242.881
247.732
252.195
256.225
259.795
262.894
265.525
267.719
269.483
270.804
271.662
272.021
271.853
271.145
269.878
268.032
265.597
262.568
258.954
254.781
250.068
244.828
239.074
232.815
226.066
218.851
211.194
203.123
194.666
185.853
176.717
167.296
157.625
147.737
137.667
127.442
117.097
106.664
96.177
85.671
75.18
64.736
54.374
44.129
34.035
24.124
14.428
4.978
-4.197
-13.066
-21.604
-29.785
-37.586
-44.984
-51.961
-58.5
-64.584
-70.201
-75.339
-79.99
-84.146
-87.803
-90.958
-93.612
-95.768
-97.431
-98.61
-99.315
-99.559
-99.356
-98.72
-97.67
-96.222
-94.397
-92.213
-89.691
-86.855
-83.729
-80.338
-76.711
-72.875
-68.861
-64.701
-60.423
-56.058
-51.633
-47.172
-42.7
-38.237
-33.805
-29.423
-25.114
-20.898
-16.796
-12.832
-9.029
-5.405
-1.976
1.25
4.274
7.091
9.696
12.082
14.234
16.132
17.75
19.058
20.024
20.628
20.86
20.725
20.246
19.446
18.355
16.994
15.369
13.488
11.36
8.997
6.424
3.693
0.873
-1.955
-4.69
-7.252
-9.583
-11.641
-13.428
-14.968
-16.311
-17.509
-18.594
-19.591
-20.521
-21.406
-22.284
-23.24
-24.378
-25.814
-27.694
-30.137
-33.243
-37.107
-41.755
-47.159
-53.247
-59.913
-67.06
-74.602
-82.458
-90.53
-98.701
-106.803
-114.646
-122.051
-128.813
-134.746
-139.675
-143.41
-145.827
-146.875
-146.556
-144.913
-142.006
-137.885
-132.603
-126.259
-118.966
-110.882
-102.189
-93.038
-83.59
-74.003
-64.434
-55.063
-46.033
-37.431
-29.309
-21.693
-14.596
-8.039
-2.036
3.441
8.432
12.996
17.21
21.118
24.755
28.164
31.382
34.457
37.428
40.302
43.073
45.731
48.267
50.677
52.958
55.083
57.021
58.741
60.21
61.409
62.331
62.968
63.319
63.385
63.173
62.701
61.995
61.075
59.961
58.671
57.225
55.647
53.963
52.198
50.374
48.516
46.643
44.778
42.943
41.157
39.437
37.801
36.258
34.823
33.508
32.323
31.272
30.357
29.576
28.927
28.412
28.033
27.787
27.663
27.651
27.737
27.913
28.172
28.504
28.892
29.316
29.763
30.234
30.741
31.302
31.927
32.608
33.331
34.095
34.901
35.761
36.667
37.565
38.373
39.01
39.427
39.621
39.6
39.311
38.623
37.444
35.822
33.959
32.072
30.203
28.178
25.798
23.141
20.369
17.385
13.696
8.558
1.465
-7.419
-17.483
-28.435
-40.154
-52.12
-63.229
-71.751
-75.921
-75.008
-69.256
-58.735
-43.517
-24.364
-2.626
19.118
37.344
49.386
53.427
48.529
35.18
13.86
-15.796
-56.154
-110.286
-177.231
-250.151
-315.287
-357.518
-370.087
-356.356
-328.175
-298.796
-274.776
-255.774
-237.665
-217.467
-195.333
-173.534
-154.779
-139.663
-127.443
-117.037
-106.93
-96.345
-85.081
-72.936
-60.073
-46.922
-33.865
-21.386
-10.031
-0.075
8.385
15.344
20.966
25.464
29.059
31.998
34.488
36.663
38.589
40.305
41.839
43.229
44.535
45.817
47.134
48.547
50.083
51.705
53.348
54.922
56.34
57.571
58.593
59.346
59.766
59.801
59.441
58.7
57.472
55.526
52.701
49.012
44.756
40.34
35.907
31.434
27.069
23.094
19.632
16.47
12.722
8.205
4.341
2.535
2.767
1.315
-7.918
-28.011
-55.263
-78.799
-86.887
-73.942
-44.248
-10.16
17.261
32.565
36.515
35.481
34.141
34.072
35.879
37.983
39.363
40.479
41.691
43.558
46.704
51.198
56.384
61.77
67.116
72.182
77.05
81.804
86.242
90.212
93.877
97.368
100.776
104.217
107.591
110.779
113.773
116.543
119.043
121.244
123.095
124.55
125.619
126.318
126.659
126.67
126.357
125.719
124.766
123.503
121.944
120.109
118.015
115.679
113.115
110.337
107.362
104.208
100.89
97.42
93.809
90.065
86.203
82.239
78.188
74.064
69.878
65.639
61.355
57.033
52.68
48.298
43.893
39.465
35.019
30.56
26.093
21.622
17.147
12.665
8.166
3.647
-0.891
-5.443
-9.996
-14.53
-19.016
-23.425
-27.724
-31.888
-35.902
-39.767
-43.496
-47.105
-50.614
-54.028
-57.338
-60.537
-63.622
-66.598
-69.475
-72.284
-75.066
-77.874
-80.771
-83.799
-86.971
-90.269
-93.638
-97.003
-100.272
-103.375
-106.267
-108.907
-111.259
-113.286
-114.951
-116.195
-116.952
-117.133
-116.629
-115.36
-113.286
-110.413
-106.8
-102.542
-97.766
-92.586
-87.099
-81.39
-75.529
-69.576
-63.588
-57.632
-51.782
-46.138
-40.832
-35.967
-31.62
-27.831
-24.6
-21.889
-19.626
-17.731
-16.119
-14.729
-13.535
-12.522
-11.701
-11.082
-10.67
-10.462
-10.438
-10.582
-10.887
-11.352
-11.978
-12.801
-13.88
-15.299
-17.17
-19.56
-22.487
-25.941
-29.881
-34.243
-38.957
-43.928
-49.037
-54.183
-59.272
-64.229
-69.003
-73.515
-77.66
-81.312
-84.308
-86.532
-87.924
-88.441
-88.073
-86.842
-84.783
-81.988
-78.598
-74.728
-70.476
-65.92
-61.103
-56.1
-51.008
-45.939
-41.024
-36.367
-32.032
-28.083
-24.574
-21.53
-18.968
-16.853
-15.099
-13.645
-12.454
-11.498
-10.775
-10.259
-9.893
-9.632
-9.429
-9.257
-9.117
-8.999
-8.887
-8.781
-8.684
-8.637
-8.729
-9.021
-9.55
-10.36
-11.47
-12.932
-14.832
-17.22
-20.126
-23.556
-27.468
-31.83
-36.624
-41.806
-47.33
-53.111
-59
-64.875
-70.636
-76.155
-81.323
-85.986
-89.936
-93.027
-95.146
-96.209
-96.199
-95.093
-92.845
-89.453
-84.92
-79.277
-72.649
-65.14
-56.834
-47.871
-38.385
-28.561
-18.661
-8.882
0.628
9.731
18.355
26.425
33.827
40.491
46.355
51.352
55.499
58.808
61.268
62.929
63.848
64.123
63.924
63.379
62.564
61.554
60.379
59.064
57.671
56.242
54.812
53.446
52.162
50.975
49.918
48.992
48.193
47.506
46.862
46.2
45.485
44.697
43.843
42.953
42.045
41.101
40.075
38.892
37.467
35.767
33.807
31.55
28.903
25.844
22.403
18.78
15.365
12.304
9.492
6.822
4.138
1.331
-1.562
-4.969
-9.788
-16.504
-25.265
-35.854
-47.491
-59.643
-72.106
-83.845
-93.207
-98.811
-99.276
-94.099
-83.91
-68.939
-49.32
-26.494
-2.594
19.996
38.028
49.075
51.782
44.059
25.121
-3.235
-39.207
-81.209
-129.369
-186.079
-250.537
-316.025
-370.43
-401.75
-405.035
-384.242
-351.269
-317.828
-289.958
-268.908
-251.503
-234.916
-219.151
-205.218
-194.627
-187.856
-183.888
-181.221
-178.409
-174.673
-169.817
-163.9
-157.155
-149.841
-142.231
-134.67
-127.467
-120.727
-114.386
-108.309
-102.309
-96.222
-89.95
-83.409
-76.512
-69.245
-61.631
-53.704
-45.53
-37.169
-28.655
-20.039
-11.376
-2.719
5.861
14.296
22.526
30.484
38.124
45.419
52.344
58.886
65.037
70.783
76.122
81.057
85.585
89.701
93.403
96.689
99.568
102.053
104.155
105.883
107.239
108.224
108.855
109.151
109.138
108.852
108.325
107.589
106.69
105.667
104.549
103.353
102.076
100.709
99.262
97.753
96.219
94.693
93.184
91.693
90.222
88.746
87.251
85.71
84.066
82.288
80.38
78.371
76.339
74.379
72.552
70.901
69.452
68.219
67.238
66.55
66.18
66.179
66.594
67.483
68.944
71.043
73.781
77.128
80.986
85.216
89.719
94.414
99.221
104.089
108.947
113.725
118.374
122.828
127.016
130.858
134.238
137.055
139.273
140.887
141.952
142.576
142.821
142.73
142.344
141.667
140.707
139.474
137.946
136.098
133.927
131.429
128.636
125.59
122.288
118.698
114.751
110.329
105.364
99.833
93.723
87.064
79.909
72.317
64.397
56.288
48.105
39.955
31.918
24.04
16.404
9.121
2.32
-3.827
-9.197
-13.718
-17.333
-20.016
-21.782
-22.66
-22.741
-22.167
-21.054
-19.494
-17.563
-15.3
-12.775
-10.08
-7.318
-4.609
-2.046
0.311
2.401
4.172
5.597
6.668
7.43
7.973
8.356
8.619
8.791
8.891
8.966
9.071
9.252
9.542
9.957
10.51
11.224
12.134
13.269
14.63
16.176
17.848
19.603
21.407
23.207
24.901
26.345
27.4
27.978
28.047
27.576
26.496
24.717
22.127
18.63
14.205
8.833
2.451
-4.895
-13.068
-21.757
-30.363
-38.302
-45.134
-50.393
-53.772
-55.327
-55.271
-54.207
-53.196
-52.984
-54.167
-57.459
-62.93
-69.849
-76.988
-82.313
-83.377
-78.426
-65.726
-43.04
-9.328
35.039
88.824
148.249
209.112
269.316
325.154
374.151
414.916
441.454
450.264
438.048
400.874
343.852
272.998
194.647
117.169
42.205
-29.42
-95.062
-153.4
-201.873
-238.906
-265.597
-283.812
-295.464
-302.512
-307.041
-310.877
-315.199
-320.608
-326.847
-332.966
-338.233
-341.812
-342.484
-339.449
-332.27
-320.786
-305.414
-286.811
-265.545
-242.334
-217.995
-193.136
-168.278
-143.805
-119.882
-96.672
-74.338
-53.023
-32.911
-14.192
2.95
18.37
31.99
43.791
53.804
62.102
68.793
74.005
77.907
80.653
82.366
83.177
83.209
82.631
81.668
80.548
79.489
78.663
78.182
78.126
78.549
79.469
80.87
82.712
84.924
87.448
90.239
93.247
96.422
99.68
102.903
105.967
108.743
111.133
113.072
114.512
115.426
115.806
115.666
115.036
113.965
112.494
110.66
108.498
106.041
103.337
100.445
97.427
94.354
91.283
88.257
85.315
82.487
79.797
77.262
74.891
72.683
70.644
68.781
67.105
65.627
64.355
63.294
62.445
61.811
61.391
61.188
61.201
61.429
61.872
62.527
63.392
64.465
65.742
67.211
68.863
70.682
72.654
74.762
76.989
79.313
81.715
84.174
86.668
89.175
91.673
94.139
96.549
98.88
101.109
103.212
105.168
106.954
108.55
109.934
111.087
111.99
112.626
112.978
113.034
112.779
112.204
111.301
110.063
108.488
106.573
104.321
101.733
98.817
95.581
92.034
88.19
84.064
79.673
75.037
70.178
65.117
59.882
54.496
48.99
43.389
37.725
32.025
26.32
20.639
15.012
9.47
4.043
-1.239
-6.349
-11.257
-15.936
-20.361
-24.507
-28.353
-31.88
-35.068
-37.903
-40.369
-42.455
-44.152
-45.453
-46.353
-46.849
-46.944
-46.641
-45.947
-44.873
-43.433
-41.64
-39.513
-37.074
-34.343
-31.345
-28.101
-24.635
-20.973
-17.142
-13.169
-9.081
-4.906
-0.677
3.575
7.813
12.003
16.115
20.119
23.986
27.687
31.195
34.485
37.538
40.332
42.846
45.054
46.922
48.432
49.577
50.358
50.785
50.871
50.622
50.056
49.201
48.073
46.684
45.027
43.072
40.811
38.25
35.409
32.33
29.033
25.518
21.785
17.828
13.637
9.216
4.542
-0.435
-5.724
-11.301
-17.102
-23.008
-28.934
-34.828
-40.646
-46.369
-51.96
-57.354
-62.504
-67.368
-71.894
-76.036
-79.711
-82.797
-85.232
-87.007
-88.165
-88.814
-89.032
-88.856
-88.331
-87.486
-86.358
-85.004
-83.455
-81.72
-79.834
-77.836
-75.801
-73.841
-72.02
-70.358
-68.84
-67.404
-66.008
-64.644
-63.29
-61.925
-60.536
-59.106
-57.639
-56.166
-54.695
-53.224
-51.732
-50.175
-48.534
-46.811
-45.019
-43.187
-41.337
-39.479
-37.63
-35.81
-34.032
-32.303
-30.621
-28.966
-27.329
-25.709
-24.108
-22.535
-20.994
-19.482
-18.001
-16.549
-15.127
-13.735
-12.372
-11.036
-9.725
-8.446
-7.203
-6.01
-4.874
-3.804
-2.81
-1.901
-1.086
-0.375
0.225
0.709
1.068
1.296
1.387
1.333
1.131
0.774
0.258
-0.42
-1.263
-2.273
-3.449
-4.788
-6.288
-7.942
-9.741
-11.675
-13.731
-15.897
-18.16
-20.505
-22.917
-25.383
-27.886
-30.413
-32.944
-35.463
-37.949
-40.382
-42.745
-45.019
-47.188
-49.235
-51.142
-52.897
-54.488
-55.901
-57.114
-58.105
-58.841
-59.297
-59.464
-59.328
-58.881
-58.121
-57.048
-55.681
-54.058
-52.213
-50.179
-47.989
-45.665
-43.25
-40.806
-38.396
-36.095
-33.948
-31.966
-30.176
-28.602
-27.255
-26.143
-25.217
-24.354
-23.45
-22.406
-21.107
-19.491
-17.412
-14.627
-11.037
-6.652
-1.625
3.643
8.838
13.855
18.407
22.099
24.875
26.824
28.475
31.059
35.424
41.889
50.931
62.774
76.767
91.845
106.093
116.347
120.064
115.446
100.13
72.297
31.885
-20.427
-81.839
-146.986
-212.633
-276.489
-336.408
-392.797
-443.149
-482.472
-504.87
-502.242
-471.99
-417.512
-348.866
-281.983
-227.55
-191.344
-171.535
-159.064
-148.397
-135.258
-118.714
-102.501
-87.98
-76.008
-66.695
-57.686
-47.56
-36.152
-23.771
-11.748
-1.43
6.789
12.895
16.906
18.868
18.861
17.062
13.911
10.088
6.074
2.147
-1.456
-4.622
-7.261
-9.252
-10.565
-11.256
-11.371
-10.958
-10.093
-8.816
-7.19
-5.319
-3.294
-1.227
0.747
2.531
4.046
5.232
6.071
6.55
6.659
6.409
5.833
4.968
3.869
2.584
1.151
-0.376
-1.94
-3.477
-4.908
-6.178
-7.246
-8.079
-8.655
-8.956
-8.966
-8.679
-8.103
-7.242
-6.1
-4.683
-2.988
-1.022
1.205
3.677
6.381
9.299
12.421
15.733
19.219
22.863
26.651
30.568
34.6
38.733
42.947
47.221
51.537
55.871
60.205
64.517
68.786
72.993
77.118
81.145
85.057
88.838
92.474
95.95
99.253
102.372
105.296
108.015
110.521
112.807
114.867
116.699
118.298
119.663
120.794
121.691
122.357
122.794
123.007
123.001
122.783
122.361
121.743
120.94
119.961
118.818
117.521
116.083
114.515
112.829
111.037
109.151
107.181
105.139
103.036
100.884
98.692
96.47
94.229
91.977
89.723
87.475
85.241
83.027
80.841
78.689
76.575
74.505
72.484
70.514
68.6
66.744
64.947
63.21
61.534
59.918
58.362
56.866
55.428
54.046
52.72
51.447
50.226
49.054
47.93
46.852
45.818
44.825
43.873
42.958
42.08
41.237
40.429
39.652
38.907
38.193
37.507
36.849
36.218
35.612
35.03
34.47
33.932
33.415
32.918
32.44
31.981
31.539
31.115
30.706
30.312
29.932
29.564
29.207
28.858
28.516
28.179
27.845
27.511
27.174
26.831
26.479
26.114
25.733
25.33
24.903
24.447
23.958
23.432
22.867
22.258
21.604
20.9
20.145
19.336
18.471
17.548
16.566
15.524
14.421
13.257
12.033
10.75
9.409
8.012
6.561
5.058
3.508
1.914
0.279
-1.392
-3.094
-4.821
-6.568
-8.327
-10.091
-11.854
-13.608
-15.346
-17.06
-18.744
-20.39
-21.993
-23.545
-25.041
-26.475
-27.841
-29.135
-30.352
-31.488
-32.54
-33.506
-34.383
-35.17
-35.866
-36.472
-36.988
-37.415
-37.754
-38.007
-38.177
-38.266
-38.278
-38.217
-38.088
-37.895
-37.646
-37.345
-37
-36.616
-36.201
-35.762
-35.304
-34.834
-34.358
-33.881
-33.41
-32.95
-32.505
-32.081
-31.683
-31.313
-30.978
-30.679
-30.419
-30.201
-30.026
-29.895
-29.809
-29.77
-29.779
-29.834
-29.937
-30.087
-30.285
-30.53
-30.821
-31.155
-31.532
-31.949
-32.404
-32.895
-33.42
-33.975
-34.558
-35.17
-35.807
-36.468
-37.151
-37.854
-38.575
-39.311
-40.059
-40.813
-41.567
-42.316
-43.056
-43.783
-44.492
-45.179
-45.842
-46.481
-47.093
-47.676
-48.224
-48.732
-49.198
-49.618
-49.989
-50.309
-50.573
-50.778
-50.923
-51.01
-51.035
-50.986
-50.846
-50.594
-50.213
-49.7
-49.047
-48.25
-47.305
-46.214
-44.994
-43.677
-42.292
-40.859
-39.396
-37.915
-36.447
-35.039
-33.741
-32.601
-31.644
-30.864
-30.27
-29.871
-29.66
-29.629
-29.72
-29.816
-29.824
-29.657
-29.211
-28.418
-27.148
-25.174
-22.41
-18.895
-14.795
-10.51
-6.372
-2.524
0.743
3.044
4.36
4.87
5.17
6.539
9.924
15.775
24.648
36.745
51.374
67.416
82.897
94.672
100.053
96.842
82.702
56.267
17.617
-32.261
-91.014
-154.893
-220.159
-282.769
-338.019
-381.981
-412.023
-426.738
-426.172
-411.383
-383.945
-346.558
-303.115
-257.708
-213.958
-174.358
-140.381
-113.197
-93.437
-80.717
-73.694
-70.251
-68.143
-66.021
-63.139
-58.755
-52.519
-44.505
-35.123
-25.411
-16.588
-9.256
-3.677
-0.042
1.772
1.972
0.786
-1.236
-3.479
-5.594
-7.33
-8.508
-9.1
-9.048
-8.288
-6.867
-4.853
-2.295
0.737
4.187
7.989
12.03
16.188
20.338
24.377
28.232
31.84
35.141
38.098
40.687
42.893
44.724
46.182
47.275
48.021
48.447
48.59
48.501
48.232
47.846
47.392
46.909
46.429
45.977
45.57
45.224
44.949
44.748
44.627
44.599
44.673
44.861
45.172
45.613
46.187
46.898
47.75
48.748
49.899
51.211
52.692
54.348
56.189
58.223
60.458
62.896
65.538
68.384
71.43
74.673
78.107
81.726
85.521
89.482
93.601
97.864
102.261
106.777
111.396
116.101
120.873
125.693
130.54
135.394
140.23
145.026
149.759
154.405
158.939
163.339
167.579
171.636
175.486
179.106
182.474
185.568
188.369
190.856
193.014
194.826
196.278
197.356
198.051
198.353
198.256
197.754
196.843
195.523
193.795
191.661
189.128
186.203
182.896
179.218
175.183
170.808
166.109
161.106
155.819
150.271
144.485
138.485
132.296
125.944
119.456
112.859
106.18
99.447
92.685
85.923
79.186
72.5
65.892
59.384
53.001
46.765
40.697
34.818
29.144
23.694
18.483
13.523
8.828
4.406
0.266
-3.585
-7.143
-10.404
-13.368
-16.033
-18.403
-20.48
-22.268
-23.775
-25.006
-25.97
-26.677
-27.135
-27.357
-27.354
-27.139
-26.724
-26.123
-25.35
-24.42
-23.348
-22.147
-20.834
-19.423
-17.928
-16.364
-14.745
-13.084
-11.395
-9.691
-7.983
-6.283
-4.602
-2.95
-1.337
0.228
1.738
3.185
4.562
5.864
7.084
8.218
9.263
10.214
11.069
11.826
12.483
13.039
13.495
13.851
14.108
14.267
14.331
14.303
14.185
13.981
13.696
13.332
12.895
12.389
11.818
11.189
10.505
9.773
8.998
8.185
7.34
6.468
5.576
4.667
3.749
2.825
1.901
0.982
0.072
-0.825
-1.704
-2.562
-3.396
-4.201
-4.977
-5.719
-6.427
-7.099
-7.734
-8.332
-8.891
-9.411
-9.894
-10.338
-10.746
-11.117
-11.454
-11.758
-12.031
-12.276
-12.495
-12.692
-12.87
-13.033
-13.185
-13.33
-13.472
-13.616
-13.764
-13.922
-14.092
-14.279
-14.487
-14.718
-14.976
-15.264
-15.585
-15.942
-16.339
-16.777
-17.26
-17.788
-18.365
-18.992
-19.671
-20.404
-21.191
-22.034
-22.934
-23.892
-24.907
-25.981
-27.111
-28.296
-29.535
-30.824
-32.162
-33.545
-34.969
-36.43
-37.925
-39.451
-41.005
-42.583
-44.18
-45.793
-47.415
-49.043
-50.668
-52.28
-53.871
-55.432
-56.955
-58.431
-59.853
-61.212
-62.502
-63.718
-64.856
-65.911
-66.878
-67.752
-68.526
-69.2
-69.77
-70.234
-70.591
-70.835
-70.963
-70.975
-70.864
-70.623
-70.236
-69.682
-68.943
-68.006
-66.861
-65.496
-63.91
-62.104
-60.098
-57.927
-55.629
-53.246
-50.823
-48.398
-46.02
-43.745
-41.628
-39.721
-38.062
-36.677
-35.599
-34.87
-34.494
-34.44
-34.624
-34.905
-35.155
-35.264
-35.072
-34.355
-32.94
-30.748
-27.859
-24.567
-21.117
-17.578
-14.11
-11.04
-8.548
-6.521
-4.426
-1.128
4.34
12.204
22.896
37.222
55.228
76.307
98.077
115.79
126.607
129.742
125.454
116.004
100.134
74.049
34.119
-24.294
-101.913
-196.226
-300.46
-403.482
-492.48
-551.978
-573.597
-553.87
-494.315
-410.156
-315.651
-226.664
-161.633
-123.167
-108.495
-110.168
-112.17
-107.998
-97.376
-82.139
-69.452
-62.017
-58.159
-55.876
-52.044
-45.43
-36.939
-27.588
-18.541
-10.764
-4.623
-0.364
1.929
2.521
1.798
0.132
-2.049
-4.296
-6.312
-7.849
-8.735
-8.977
-8.595
-7.617
-6.117
-4.167
-1.825
0.805
3.612
6.484
9.268
11.871
14.232
16.295
18.024
19.381
20.329
20.873
21.038
20.842
20.306
19.448
18.287
16.876
15.285
13.585
11.859
10.168
8.557
7.076
5.762
4.645
3.751
3.093
2.671
2.497
2.583
2.941
3.584
4.514
5.73
7.226
8.997
11.036
13.334
15.881
18.666
21.677
24.907
28.344
31.977
35.794
39.776
43.906
48.162
52.522
56.963
61.462
65.993
70.532
75.056
79.54
83.962
88.301
92.533
96.639
100.597
104.39
107.997
111.403
114.591
117.548
120.26
122.717
124.91
126.832
128.477
129.842
130.925
131.726
132.245
132.485
132.449
132.145
131.578
130.757
129.691
128.391
126.868
125.135
123.206
121.093
118.809
116.369
113.786
111.072
108.243
105.309
102.285
99.183
96.015
92.792
89.526
86.226
82.903
79.566
76.222
72.879
69.544
66.222
62.918
59.638
56.384
53.16
49.969
46.812
43.692
40.609
37.563
34.555
31.584
28.651
25.755
22.896
20.073
17.287
14.538
11.825
9.15
6.513
3.915
1.358
-1.157
-3.629
-6.055
-8.433
-10.761
-13.035
-15.253
-17.412
-19.507
-21.536
-23.495
-25.381
-27.19
-28.919
-30.564
-32.123
-33.593
-34.97
-36.253
-37.439
-38.528
-39.517
-40.406
-41.196
-41.886
-42.479
-42.976
-43.38
-43.695
-43.923
-44.071
-44.143
-44.144
-44.081
-43.961
-43.79
-43.576
-43.328
-43.053
-42.76
-42.456
-42.152
-41.855
-41.573
-41.316
-41.09
-40.905
-40.767
-40.683
-40.661
-40.707
-40.827
-41.026
-41.308
-41.677
-42.137
-42.69
-43.337
-44.078
-44.915
-45.845
-46.866
-47.977
-49.173
-50.451
-51.805
-53.231
-54.721
-56.269
-57.868
-59.509
-61.185
-62.888
-64.608
-66.336
-68.064
-69.783
-71.484
-73.157
-74.794
-76.386
-77.925
-79.403
-80.812
-82.144
-83.393
-84.551
-85.614
-86.575
-87.43
-88.175
-88.807
-89.323
-89.721
-90
-90.16
-90.2
-90.123
-89.928
-89.62
-89.199
-88.67
-88.036
-87.301
-86.469
-85.545
-84.534
-83.441
-82.273
-81.033
-79.728
-78.364
-76.947
-75.482
-73.976
-72.433
-70.861
-69.265
-67.651
-66.023
-64.389
-62.751
-61.116
-59.488
-57.87
-56.265
-54.676
-53.107
-51.558
-50.032
-48.53
-47.053
-45.602
-44.179
-42.786
-41.422
-40.091
-38.792
-37.526
-36.296
-35.102
-33.945
-32.825
-31.745
-30.705
-29.707
-28.751
-27.838
-26.97
-26.148
-25.374
-24.648
-23.972
-23.345
-22.769
-22.244
-21.774
-21.358
-21
-20.701
-20.464
-20.294
-20.193
-20.161
-20.196
-20.292
-20.443
-20.647
-20.9
-21.195
-21.53
-21.898
-22.3
-22.741
-23.224
-23.748
-24.31
-24.902
-25.522
-26.175
-26.866
-27.603
-28.39
-29.225
-30.107
-31.042
-32.025
-33.044
-34.08
-35.092
-36.05
-36.93
-37.718
-38.413
-39.007
-39.486
-39.829
-40.013
-40.042
-39.949
-39.785
-39.611
-39.486
-39.424
-39.484
-39.786
-40.363
-41.206
-42.184
-42.972
-43.424
-43.607
-43.588
-43.476
-43.449
-43.57
-44.138
-45.873
-49.073
-53.673
-59.479
-65.854
-72.147
-78.04
-82.975
-85.877
-85.965
-82.571
-75.167
-64.066
-49.618
-31.703
-10.375
13.71
38.453
60.174
75.682
83.514
85.568
85.43
83.705
77.252
57.798
15.688
-54.218
-149.76
-258.918
-364.715
-449.54
-501.589
-520.558
-512.926
-489.784
-460.778
-429.001
-394.603
-356.108
-313.331
-268.926
-226.345
-189.111
-159.406
-137.742
-123.652
-115.477
-111.256
-109.293
-107.895
-105.897
-102.52
-97.219
-89.967
-81.245
-71.822
-62.639
-54.701
-48.614
-44.703
-43.089
-43.571
-45.85
-49.559
-54.172
-59.092
-63.887
-68.226
-71.907
-74.897
-77.148
-78.621
-79.336
-79.331
-78.661
-77.406
-75.632
-73.395
-70.767
-67.821
-64.658
-61.411
-58.185
-55.067
-52.118
-49.359
-46.814
-44.509
-42.447
-40.616
-38.99
-37.524
-36.182
-34.934
-33.739
-32.555
-31.328
-29.993
-28.5
-26.819
-24.924
-22.804
-20.444
-17.832
-14.963
-11.845
-8.482
-4.879
-1.039
3.043
7.363
11.915
16.691
21.679
26.874
32.272
37.868
43.656
49.632
55.789
62.123
68.632
75.308
82.143
89.124
96.24
103.478
110.824
118.265
125.783
133.364
140.992
148.651
156.326
164.001
171.657
179.277
186.843
194.338
201.742
209.038
216.204
223.223
230.075
236.741
243.203
249.442
255.439
261.176
266.635
271.8
276.656
281.186
285.377
289.217
292.693
295.796
298.517
300.849
302.784
304.32
305.451
306.177
306.498
306.412
305.924
305.036
303.754
302.084
300.035
297.616
294.84
291.718
288.265
284.497
280.432
276.086
271.48
266.634
261.568
256.305
250.865
245.273
239.551
233.721
227.807
221.832
215.818
209.788
203.764
197.766
191.815
185.932
180.135
174.442
168.871
163.438
158.158
153.045
148.112
143.369
138.826
134.493
130.374
126.476
122.803
119.355
116.134
113.14
110.369
107.819
105.485
103.361
101.442
99.719
98.183
96.826
95.637
94.606
93.721
92.97
92.34
91.819
91.394
91.052
90.778
90.56
90.384
90.235
90.102
89.97
89.827
89.66
89.458
89.21
88.905
88.534
88.089
87.562
86.945
86.233
85.42
84.502
83.474
82.333
81.077
79.705
78.214
76.605
74.879
73.036
71.078
69.009
66.831
64.548
62.164
59.686
57.118
54.468
51.741
48.945
46.089
43.18
40.226
37.236
34.218
31.18
28.131
25.078
22.028
18.989
15.968
12.972
10.006
7.078
4.193
1.356
-1.426
-4.15
-6.81
-9.403
-11.925
-14.372
-16.742
-19.033
-21.241
-23.367
-25.409
-27.366
-29.239
-31.029
-32.737
-34.366
-35.917
-37.394
-38.799
-40.137
-41.41
-42.622
-43.777
-44.877
-45.927
-46.929
-47.887
-48.804
-49.681
-50.522
-51.33
-52.106
-52.852
-53.57
-54.262
-54.929
-55.571
-56.191
-56.788
-57.362
-57.915
-58.445
-58.951
-59.433
-59.89
-60.318
-60.717
-61.081
-61.41
-61.698
-61.942
-62.138
-62.281
-62.369
-62.396
-62.359
-62.253
-62.077
-61.825
-61.496
-61.088
-60.597
-60.023
-59.365
-58.622
-57.794
-56.882
-55.886
-54.81
-53.654
-52.421
-51.114
-49.737
-48.295
-46.792
-45.234
-43.626
-41.976
-40.292
-38.581
-36.852
-35.115
-33.38
-31.656
-29.955
-28.288
-26.665
-25.098
-23.598
-22.176
-20.843
-19.608
-18.483
-17.475
-16.594
-15.848
-15.243
-14.784
-14.478
-14.328
-14.336
-14.504
-14.834
-15.324
-15.974
-16.779
-17.737
-18.842
-20.089
-21.468
-22.972
-24.59
-26.312
-28.125
-30.015
-31.968
-33.969
-36.002
-38.049
-40.094
-42.118
-44.104
-46.033
-47.885
-49.644
-51.29
-52.808
-54.18
-55.391
-56.426
-57.273
-57.92
-58.357
-58.576
-58.57
-58.333
-57.862
-57.154
-56.211
-55.032
-53.622
-51.984
-50.125
-48.055
-45.782
-43.319
-40.678
-37.873
-34.92
-31.835
-28.637
-25.344
-21.976
-18.553
-15.095
-11.624
-8.164
-4.736
