Name,Enes Ozkan
Date of Birth,"5 Nov 2001"
Recorded Date,2024-09-28 22:21:58 +0000
Classification,Sinus Rhythm
Symptoms,
Software Version,1.90
Device,"Watch6,14"
Sample Rate,512 hertz


Lead,Lead I
Unit,µV

-54.252
-61.595
-68.243
-73.928
-78.492
-81.588
-82.843
-82.446
-80.651
-77.56
-73.377
-68.262
-62.309
-55.852
-49.281
-42.596
-35.819
-29.068
-22.358
-15.808
-9.568
-3.632
2.005
7.169
11.746
15.689
18.932
21.524
23.537
24.999
25.986
26.632
27.065
27.403
27.738
28.111
28.561
29.139
29.895
30.882
32.136
33.667
35.476
37.562
39.91
42.493
45.258
48.132
51.038
53.918
56.735
59.463
62.082
64.571
66.907
69.071
71.052
72.842
74.431
75.812
76.978
77.932
78.687
79.266
79.696
79.993
80.167
80.226
80.174
80.013
79.748
79.378
78.899
78.312
77.619
76.826
75.939
74.963
73.898
72.748
71.511
70.19
68.789
67.309
65.756
64.135
62.45
60.711
58.924
57.097
55.237
53.349
51.438
49.508
47.564
45.611
43.651
41.689
39.729
37.774
35.828
33.895
31.978
30.079
28.2
26.343
24.51
22.701
20.917
19.157
17.423
15.713
14.027
12.365
10.726
9.109
7.512
5.936
4.377
2.836
1.309
-0.204
-1.705
-3.194
-4.674
-6.145
-7.608
-9.063
-10.512
-11.954
-13.391
-14.823
-16.25
-17.674
-19.095
-20.513
-21.928
-23.34
-24.75
-26.156
-27.56
-28.96
-30.356
-31.749
-33.137
-34.521
-35.9
-37.273
-38.64
-40.002
-41.357
-42.705
-44.047
-45.384
-46.714
-48.04
-49.363
-50.682
-52
-53.319
-54.639
-55.962
-57.29
-58.625
-59.968
-61.32
-62.684
-64.062
-65.455
-66.864
-68.291
-69.738
-71.205
-72.694
-74.205
-75.74
-77.299
-78.882
-80.489
-82.12
-83.776
-85.454
-87.152
-88.871
-90.608
-92.363
-94.132
-95.913
-97.697
-99.484
-101.272
-103.046
-104.796
-106.51
-108.172
-109.782
-111.347
-112.847
-114.263
-115.615
-116.916
-118.172
-119.399
-120.562
-121.61
-122.559
-123.441
-124.135
-124.495
-124.59
-124.406
-123.909
-123.383
-122.041
-119.113
-115.675
-112.052
-110.229
-112.597
-116.524
-120.243
-121.135
-115.599
-106.804
-97.468
-89.473
-85.88
-84.519
-83.196
-81.416
-77.861
-73.374
-68.943
-64.317
-59.559
-54.543
-49.022
-43.129
-37.129
-31.017
-24.76
-18.724
-12.397
-5.192
2.05
9.426
15.134
16.131
14.76
13.398
16.323
30.608
53.004
76.914
96.128
101.361
94.732
84.563
75.146
72.314
74.776
76.146
76.357
75.315
75.767
82.357
94.003
109.661
125.465
137.027
143.495
143.391
139.588
135.591
132.845
133.508
135.975
138.265
140.089
140.547
140.144
139.687
138.913
137.806
136.909
135.787
132.999
129.057
124.962
123.583
131.947
150.827
173.841
191.219
187.326
156.195
109.21
64.52
44.056
60.615
103.814
152.59
186.039
189.153
167.591
138.791
118.584
119.26
136.621
156.048
163.039
146.112
111.535
76.174
57.238
69.093
105.096
145.86
174.356
175.713
153.944
126.032
102.609
92.901
94.516
95.054
92.304
86.1
81.363
90.244
111.322
137.914
160.619
162.206
139.629
100.634
58.167
37.954
57.14
116.96
207.721
300.253
363.375
382.764
358.849
312.989
275.121
259.289
264.493
275.833
275.258
264.86
263.612
294.78
371.773
478.676
576.254
623.766
596.386
500.692
370.088
243.255
149.327
96.849
75.431
70.044
67.818
64.45
62.832
63.477
65.569
65.344
57.232
43.523
31.538
29.255
45.095
79.34
122.112
162.137
189.001
196.762
190.335
178.08
166.265
160.115
159.014
159.241
159.43
158.666
157.384
157.483
159.468
163.122
168.118
173.587
178.967
184.079
188.785
193.113
197.203
201.211
205.317
209.735
214.578
219.848
225.532
231.557
237.733
243.877
249.792
255.27
260.275
264.83
268.781
271.955
274.379
276.095
277.345
278.506
279.512
280.227
280.747
281.115
281.163
280.647
278.922
275.163
269.309
261.482
251.739
240.612
228.921
217.581
208.202
201.769
197.522
195.961
198.019
205.586
223.298
250.49
281.087
307.229
317.218
307.512
286.829
266.146
259.492
273.812
300.247
327.842
345.868
347.447
338.865
327.996
320.009
319.002
321.924
324.874
326.775
326.344
325.159
325.045
324.993
324.803
322.932
317.783
312.469
308.924
309.536
317.353
328.952
341.263
351.733
356.215
355.909
353.081
348.588
343.777
336.342
322.309
300.279
272.251
245.804
231.007
235.359
260.158
297.757
336.356
364.677
376.534
373.668
362.297
349.146
337.236
327.956
321.447
319.425
329.762
356.154
398.365
452.732
506.369
550
579.254
589.798
582.267
554.571
500.491
416.937
303.306
166.972
25.213
-101.942
-193.909
-237.959
-234.678
-191.878
-124.748
-49.61
23.685
86.658
135.119
170.702
195.04
213.083
230.996
250.185
270.476
289.552
303.341
310.973
313.627
313.336
313.005
314.171
316.939
321.045
325.975
331.325
336.815
341.974
346.183
348.824
349.63
348.69
346.208
342.484
337.825
332.491
326.826
321.218
315.896
310.958
306.423
302.221
298.29
294.607
291.117
287.753
284.466
281.208
277.949
274.687
271.426
268.169
264.923
261.69
258.471
255.265
252.12
249.096
246.226
243.554
241.101
238.847
236.853
235.227
233.972
233.052
232.529
232.401
232.523
232.926
233.504
233.682
234.114
235.516
236.746
237.728
235.97
227.737
216.029
203.776
195.819
199.74
211.856
225.701
235.478
232.504
219.219
203.268
189.339
183.557
185.602
190.131
194.681
196.94
196.083
193.884
190.843
186.654
181.744
176.847
173.088
172.546
176.577
183.913
192.335
198.945
202.262
207.084
221.484
251.945
298.412
344.218
359.907
317.383
201.018
25.739
-163.306
-312.789
-378.495
-347.745
-244.743
-108.915
22.362
128.295
208.484
266.854
300.623
302.065
265.081
196.383
119.934
64.371
47.292
68.202
108.482
143.945
160.489
157.182
143.975
132.387
126.669
124.014
116.231
99.42
77.658
58.954
54.96
69.955
96.034
120.562
128.849
112.773
78.464
39.75
10.854
1.443
10.573
28.968
46.171
54.849
52.86
42.359
28.492
15.967
6.804
3.737
7.573
14.101
20.152
20.783
9.268
-11.255
-34.045
-53.324
-59.49
-52.402
-40.993
-30.815
-29.393
-39.619
-54.124
-68.511
-79.465
-83.973
-85.568
-86.669
-87.543
-89.423
-91.449
-92.753
-93.775
-94.535
-95.108
-95.729
-96.339
-96.869
-97.378
-97.907
-98.467
-99.096
-99.848
-100.755
-101.85
-103.157
-104.662
-106.33
-108.12
-109.995
-111.933
-113.916
-115.939
-117.989
-120.053
-122.119
-124.173
-126.202
-128.195
-130.141
-132.025
-133.842
-135.594
-137.289
-138.946
-140.578
-142.188
-143.775
-145.337
-146.866
-148.359
-149.805
-151.193
-152.514
-153.758
-154.92
-155.996
-156.981
-157.868
-158.648
-159.314
-159.857
-160.274
-160.561
-160.714
-160.733
-160.619
-160.374
-160.003
-159.513
-158.907
-158.192
-157.373
-156.457
-155.451
-154.364
-153.203
-151.977
-150.696
-149.37
-148.009
-146.626
-145.23
-143.833
-142.447
-141.083
-139.75
-138.461
-137.224
-136.048
-134.943
-133.916
-132.974
-132.123
-131.37
-130.718
-130.173
-129.737
-129.413
-129.202
-129.105
-129.121
-129.25
-129.489
-129.836
-130.286
-130.835
-131.479
-132.212
-133.028
-133.922
-134.886
-135.913
-136.995
-138.126
-139.295
-140.495
-141.717
-142.951
-144.189
-145.422
-146.64
-147.837
-149.006
-150.139
-151.232
-152.28
-153.279
-154.225
-155.115
-155.944
-156.711
-157.411
-158.039
-158.594
-159.076
-159.484
-159.822
-160.092
-160.297
-160.44
-160.524
-160.552
-160.526
-160.442
-160.299
-160.101
-159.857
-159.58
-159.289
-159.001
-158.729
-158.489
-158.293
-158.152
-158.073
-158.051
-158.078
-158.151
-158.276
-158.469
-158.748
-159.107
-159.54
-160.04
-160.586
-161.161
-161.74
-162.268
-162.712
-163.076
-163.333
-163.443
-163.389
-163.148
-162.73
-162.204
-161.587
-160.833
-160.008
-159.358
-159.029
-159.012
-159.323
-159.688
-160.417
-162.814
-166.801
-171.299
-174.387
-172.414
-165.616
-158.069
-153.88
-158.43
-171.987
-189.09
-205.514
-216.828
-221.773
-223.516
-223.677
-223.393
-223.272
-222.153
-219.674
-216.188
-211.94
-207.533
-203.495
-199.944
-197.075
-195.094
-193.915
-193.462
-193.577
-193.893
-194.479
-194.633
-192.054
-185.776
-176.012
-165.259
-159.883
-161.096
-163.942
-160.543
-139.551
-99.844
-52.911
-13.768
1.075
-13.951
-49.626
-92.822
-130.682
-156.816
-175.396
-192.033
-208.656
-224.287
-232.574
-229.368
-218.622
-206.646
-202.325
-211.109
-227.79
-244.491
-253.015
-247.402
-231.919
-214.25
-200.001
-194.048
-194.4
-194.959
-193.782
-190.28
-186.495
-188.182
-195.43
-204.254
-210.897
-209.423
-199.631
-187.216
-176.378
-171.63
-173.639
-178.249
-182.875
-185.707
-186.212
-185.999
-185.787
-185.528
-185.264
-184.737
-183.893
-182.963
-182.019
-181.034
-180.025
-179.017
-178.023
-177.062
-176.138
-175.24
-174.374
-173.567
-172.831
-172.168
-171.579
-171.062
-170.615
-170.238
-169.926
-169.676
-169.481
-169.336
-169.234
-169.168
-169.129
-169.107
-169.094
-169.081
-169.062
-169.031
-168.981
-168.907
-168.804
-168.668
-168.495
-168.279
-168.016
-167.701
-167.329
-166.897
-166.402
-165.842
-165.215
-164.519
-163.755
-162.924
-162.025
-161.062
-160.034
-158.945
-157.797
-156.594
-155.338
-154.034
-152.686
-151.298
-149.876
-148.423
-146.947
-145.451
-143.94
-142.42
-140.895
-139.372
-137.856
-136.352
-134.863
-133.393
-131.945
-130.523
-129.129
-127.765
-126.429
-125.125
-123.855
-122.624
-121.438
-120.299
-119.209
-118.164
-117.165
-116.217
-115.322
-114.484
-113.704
-112.976
-112.302
-111.685
-111.124
-110.619
-110.157
-109.715
-109.271
-108.81
-108.322
-107.808
-107.264
-106.67
-105.994
-105.199
-104.275
-103.229
-102.06
-100.754
-99.283
-97.621
-95.833
-94.065
-92.38
-90.809
-89.298
-87.661
-85.873
-84.048
-82.143
-80.069
-77.888
-75.587
-73.331
-71.887
-71.785
-73.182
-76.544
-80.916
-83.675
-83.677
-80.798
-78.202
-83.809
-100.755
-124.288
-141.272
-132.451
-88.52
-17.54
56.541
103.899
106.751
66.879
5.046
-53.232
-91.773
-106.626
-107.404
-105.589
-106.508
-111.442
-116.208
-117.17
-114.488
-108.666
-101.416
-94.28
-87.6
-82.045
-77.939
-74.89
-72.397
-70.227
-68.292
-66.491
-64.507
-61.426
-56.389
-49.107
-39.484
-27.265
-12.238
4.503
20.632
33.589
40.422
41.144
38.448
31.704
20.011
0.535
-34.538
-87.202
-156.816
-242.973
-336.483
-426.989
-505.033
-557.085
-574.851
-558.278
-508.796
-432.315
-341.47
-245.925
-159.007
-99.207
-72.707
-80.557
-115.745
-156.911
-191.025
-211.511
-216.207
-215.088
-213.669
-212.226
-210.938
-204.914
-192.195
-174.798
-154.255
-133.594
-114.897
-98.685
-85.886
-76.741
-70.875
-67.739
-66.299
-65.707
-65.621
-65.792
-65.974
-66.003
-65.752
-65.283
-64.865
-64.651
-64.625
-64.701
-64.74
-64.661
-64.491
-64.233
-63.842
-63.287
-62.526
-61.534
-60.381
-59.152
-57.776
-56.156
-54.386
-52.503
-50.544
-48.819
-46.71
-43.587
-40.373
-37.34
-36.168
-38.872
-43.204
-47.653
-49.981
-47.123
-41.762
-36.176
-31.918
-31.554
-33.209
-34.98
-36.432
-36.41
-35.572
-34.764
-33.824
-32.862
-31.825
-30.551
-29.161
-27.75
-26.29
-24.777
-23.225
-21.638
-20.016
-18.364
-16.67
-14.925
-13.144
-11.344
-9.527
-7.7
-5.864
-4.022
-2.185
-0.35
1.485
3.32
5.16
6.993
8.802
10.591
12.366
14.097
15.765
17.351
18.831
20.223
21.563
22.827
23.976
25.108
26.341
27.601
28.89
30.23
31.367
32.986
35.758
38.738
41.635
42.701
39.845
35.376
30.836
28.511
31.535
37.1
42.824
47.073
47.167
45.016
42.551
40.193
39.11
38.61
37.821
36.929
35.828
34.575
33.344
32.026
30.575
29.098
27.674
26.35
25.151
24.079
23.157
22.459
22.011
21.728
21.439
20.944
20.165
19.187
18.091
16.818
15.301
13.532
11.688
10.116
8.949
7.991
6.935
5.562
3.73
1.325
-2.006
-6.936
-13.983
-23.369
-35.028
-48.706
-64.177
-81.246
-99.427
-117.809
-135.236
-150.442
-162.455
-170.682
-174.571
-173.598
-167.439
-156.143
-140.484
-121.852
-101.527
-80.637
-60.305
-41.427
-25.081
-12.358
-3.342
1.647
2.333
0.024
-4.769
-10.102
-13.373
-16.332
-20.16
-27.212
-40.687
-57.301
-73.979
-88.068
-95.898
-99.141
-99.699
-97.807
-94.573
-89.324
-81.386
-71.518
-60.242
-47.938
-34.622
-21.025
-8.957
1.392
10.466
20.235
34.023
48.013
53.558
43.579
15.792
-17.435
-35.321
-26.864
-2.73
2.381
-49.916
-171.747
-326.393
-437.019
-430.847
-278.239
-19.308
250.488
440.923
506.563
463.425
374.628
294.204
239.64
196.046
132.318
40.52
-53.375
-110.976
-102.305
-30.923
66.773
146.219
176.296
156.512
110.1
65.696
40.692
29.207
15.224
-12.693
-50.255
-70.801
-45.981
36.427
164.907
302.564
409.621
459.241
437.771
346.752
196.327
12.881
-142.464
-184.477
-34.638
328.455
825.209
1296.789
1576.837
1573.78
1322.58
954.165
606.253
350.052
168.832
-0.523
-189.014
-361.617
-445.733
-383.962
-189.227
53.762
243.638
313.738
262.643
144.473
23.663
-59.51
-99.61
-112.725
-112.826
-98.027
-52.258
34.382
150.089
260.038
316.241
286.196
173.281
18.509
-114.216
-170.645
-130.546
-18.624
106.525
182.162
165.854
57.894
-98.041
-236.409
-295.191
-247.799
-113.056
55.924
195.281
264.173
255.241
192.461
117.582
64.995
53.845
83.331
132.732
172.838
175.368
125.046
29.851
-79.553
-162.009
-185.009
-141.152
-51.481
44.84
109.782
126.113
98.894
49.484
5.261
-19.38
-22.1
-8.422
8.292
20.898
27.793
28.475
27.586
27.627
28.247
30.119
32.199
33.541
34.655
35.648
36.406
37.887
40.661
43.597
46.404
47.265
43.992
39.045
34.09
31.564
34.825
41.027
47.68
53.038
54.214
53.05
51.445
49.818
49.447
49.685
49.701
49.725
49.67
49.857
50.876
52.608
54.415
55.605
55.237
53.684
53.51
56.648
63.158
68.808
63.691
39.453
-3.488
-51.618
-79.237
-62.022
6.421
106.678
199.794
247.617
233.62
171.532
94.557
32.03
-4.477
-22.31
-36.49
-50.521
-55.584
-41.146
-3.338
44.85
81.539
92.532
75.67
43.099
12.993
-4.164
-6.468
0.747
8.784
13.366
13.981
11.528
9.059
8.147
7.429
6.643
3.59
-5.257
-17.207
-29.06
-36.66
-32.088
-16.466
2.938
18.858
20.359
3.651
-23.39
-50.723
-67.846
-66.67
-50.716
-30.32
-13.061
-6.442
-11.824
-21.674
-31.545
-38.007
-38.456
-36.484
-34.321
-32.247
-31.45
-30.998
-29.995
-28.841
-27.509
-26.039
-24.651
-23.261
-21.753
-20.144
-18.426
-16.554
-14.527
-12.374
-10.104
-7.735
-5.299
-2.795
-0.225
2.394
5.054
7.748
10.468
13.205
15.954
18.703
21.441
24.158
26.846
29.494
32.093
34.633
37.107
39.505
41.82
44.044
46.17
48.19
50.099
51.89
53.556
55.092
56.492
57.752
58.867
59.835
60.654
61.322
61.839
62.206
62.425
62.496
62.421
62.201
61.838
61.336
60.699
59.93
59.035
58.019
56.889
55.657
54.331
52.918
51.425
49.857
48.224
46.541
44.823
43.088
41.351
39.635
37.963
36.365
34.867
33.486
32.237
31.127
30.172
29.392
28.806
28.43
28.266
28.308
28.551
28.99
29.613
30.393
31.29
32.25
33.24
34.238
35.23
36.198
37.106
37.907
38.559
39.042
39.356
39.517
39.534
39.406
39.143
38.78
38.378
38.023
37.764
37.601
37.567
37.777
38.425
39.801
42.18
45.706
50.443
56.451
63.656
71.81
80.476
88.899
96.232
101.848
105.421
106.822
106.231
104.156
101.359
99.129
99.033
102.443
110.26
122.903
140.246
161.483
185.211
209.171
230.491
246.04
252.828
248.253
229.928
197.243
151.639
95.174
30.714
-41.145
-122.441
-211.667
-304.044
-389.141
-452.061
-484.961
-485.891
-460.836
-422.205
-377.593
-333.592
-292.582
-253.2
-217.45
-184.464
-154.408
-128.846
-106.196
-87.309
-72.781
-61.563
-53.784
-48.129
-42.661
-36.475
-29.028
-20.409
-11.177
-1.775
7.526
16.419
24.346
30.71
35.221
37.836
38.76
38.338
36.826
34.489
31.687
28.803
26.131
23.851
22.037
20.687
19.789
19.316
19.219
19.422
19.859
20.488
21.276
22.204
23.239
24.32
25.388
26.393
27.287
28.03
28.596
28.964
29.145
29.185
29.127
29.013
28.873
28.713
28.536
28.338
28.117
27.88
27.636
27.394
27.168
26.976
26.828
26.736
26.691
26.666
26.638
26.591
26.521
26.439
26.367
26.334
26.367
26.49
26.722
27.077
27.56
28.173
28.914
29.782
30.779
31.917
33.203
34.644
36.238
37.976
39.843
41.821
43.887
46.023
48.21
50.435
52.686
54.957
57.239
59.531
61.825
64.114
66.389
68.64
70.858
73.037
75.17
77.254
79.283
81.254
83.161
85.001
86.768
88.455
90.056
91.564
92.972
94.275
95.467
96.545
97.505
98.345
99.062
99.653
100.119
100.456
100.664
100.742
100.687
100.5
100.179
99.725
99.137
98.417
97.564
96.581
95.468
94.228
92.865
91.38
89.778
88.063
86.239
84.312
82.288
80.171
77.969
75.688
73.335
70.917
68.442
65.917
63.35
60.748
58.118
55.469
52.807
50.141
47.478
44.825
42.19
39.581
37.006
34.471
31.984
29.552
27.182
24.88
22.652
20.504
18.44
16.466
14.586
12.803
11.121
9.543
8.069
6.703
5.444
4.294
3.253
2.319
1.492
0.771
0.153
-0.362
-0.779
-1.098
-1.324
-1.459
-1.507
-1.473
-1.359
-1.171
-0.912
-0.588
-0.203
0.238
0.73
1.269
1.849
2.467
3.117
3.795
4.496
5.218
5.955
6.705
7.464
8.23
8.999
9.771
10.541
11.31
12.076
12.838
13.594
14.345
15.089
15.827
16.559
17.285
18.005
18.72
19.43
20.135
20.837
21.537
22.234
22.93
23.625
24.321
25.017
25.715
26.415
27.117
27.821
28.527
29.234
29.944
30.653
31.363
32.07
32.775
33.475
34.169
34.854
35.528
36.19
36.836
37.464
38.072
38.657
39.216
39.748
40.249
40.717
41.15
41.546
41.903
42.22
42.495
42.726
42.914
43.056
43.153
43.204
43.209
43.17
43.085
42.958
42.788
42.578
42.329
42.044
41.725
41.374
40.995
40.591
40.163
39.717
39.254
38.779
38.294
37.804
37.31
36.816
36.325
35.84
35.363
34.896
34.441
34
33.574
33.164
32.771
32.395
32.036
31.695
31.37
31.061
30.766
30.485
30.216
29.956
29.705
29.459
29.217
28.977
28.736
28.492
28.243
27.986
27.72
27.442
27.151
26.845
26.522
26.182
25.823
25.445
25.048
24.633
24.198
23.746
23.277
22.793
22.296
21.787
21.27
20.746
20.218
19.69
19.165
18.645
18.135
17.637
17.155
16.692
16.25
15.834
15.445
15.086
14.759
14.466
14.209
13.99
13.809
13.667
13.564
13.502
13.479
13.494
13.547
13.636
13.758
13.912
14.096
14.305
14.538
14.791
15.059
15.34
15.629
15.923
16.216
16.506
16.788
17.059
17.314
17.551
17.766
17.957
18.12
18.254
18.357
18.427
18.461
18.46
18.422
18.346
18.233
18.083
17.896
17.672
17.414
17.122
16.799
16.445
16.064
15.658
15.23
14.781
14.316
13.838
13.35
12.856
12.358
11.86
11.365
10.877
10.399
9.933
9.482
9.048
8.634
8.243
7.877
7.537
7.227
6.947
6.7
6.488
6.313
6.176
6.08
6.024
6.011
6.042
6.118
6.241
6.41
6.628
6.893
7.208
7.572
7.985
8.446
8.957
9.517
10.124
10.779
11.482
12.23
13.024
13.863
14.746
15.671
16.638
17.644
18.687
19.765
20.876
22.016
23.182
24.37
25.575
26.794
28.022
29.253
30.482
31.704
32.914
34.106
35.274
36.412
37.515
38.576
39.59
40.55
41.452
42.29
43.058
43.751
44.363
44.89
45.326
45.667
45.908
46.045
46.071
45.985
45.781
45.458
45.013
44.445
43.751
42.934
41.995
40.935
39.759
38.47
37.073
35.571
33.969
32.274
30.49
28.624
26.682
24.67
22.599
20.479
18.322
16.138
13.936
11.723
9.504
7.293
5.097
2.929
0.801
-1.275
-3.278
-5.185
-6.971
-8.618
-10.11
-11.443
-12.616
-13.627
-14.473
-15.143
-15.634
-15.957
-16.12
-16.136
-16.02
-15.789
-15.482
-15.169
-14.917
-14.785
-14.817
-15.026
-15.427
-16.043
-16.902
-18.045
-19.495
-21.232
-23.241
-25.527
-28.042
-30.701
-33.332
-35.63
-37.314
-38.181
-38.086
-36.952
-34.865
-31.994
-28.617
-25.21
-22.262
-20.204
-19.331
-19.692
-21.009
-22.828
-24.624
-25.639
-24.932
-21.511
-14.589
-3.714
11.078
29.448
51.038
74.276
96.216
113.864
124.126
126.651
124.141
117.664
107.496
89.434
54.382
-3.412
-87.828
-195.488
-312.367
-423.033
-510.159
-561.429
-576.96
-562.452
-527.731
-482.184
-429.824
-372.784
-314.703
-261.735
-219.136
-190.177
-173.151
-160.764
-148.354
-133.946
-118.019
-104.838
-96.345
-91.713
-89.674
-87.842
-84.729
-80.51
-75.566
-70.279
-64.997
-59.951
-55.367
-51.621
-49.163
-48.069
-48.193
-49.372
-51.305
-53.709
-56.357
-58.926
-61.07
-62.62
-63.506
-63.724
-63.36
-62.472
-61.101
-59.336
-57.278
-55.018
-52.645
-50.219
-47.798
-45.456
-43.274
-41.337
-39.709
-38.421
-37.49
-36.916
-36.69
-36.794
-37.202
-37.875
-38.775
-39.866
-41.111
-42.483
-43.945
-45.46
-46.99
-48.495
-49.944
-51.315
-52.594
-53.767
-54.83
-55.776
-56.604
-57.32
-57.924
-58.416
-58.796
-59.059
-59.207
-59.24
-59.159
-58.968
-58.668
-58.261
-57.749
-57.134
-56.419
-55.606
-54.697
-53.694
-52.601
-51.422
-50.163
-48.83
-47.429
-45.967
-44.449
-42.884
-41.279
-39.64
-37.973
-36.285
-34.583
-32.873
-31.161
-29.454
-27.758
-26.08
-24.425
-22.8
-21.209
-19.66
-18.156
-16.703
-15.306
-13.968
-12.693
-11.485
-10.347
-9.282
-8.292
-7.379
-6.545
-5.791
-5.118
-4.527
-4.019
-3.594
-3.252
-2.991
-2.813
-2.716
-2.7
-2.763
-2.905
-3.125
-3.421
-3.792
-4.236
-4.751
-5.335
-5.987
-6.704
-7.485
-8.327
-9.228
-10.186
-11.2
-12.268
-13.387
-14.556
-15.773
-17.036
-18.345
-19.697
-21.092
-22.527
-24.002
-25.516
-27.067
-28.654
-30.276
-31.932
-33.621
-35.341
-37.092
-38.872
-40.679
-42.514
-44.374
-46.257
-48.162
-50.088
-52.032
-53.993
-55.967
-57.953
-59.947
-61.948
-63.951
-65.954
-67.953
-69.944
-71.924
-73.889
-75.834
-77.755
-79.648
-81.509
-83.332
-85.114
-86.849
-88.534
-90.163
-91.732
-93.236
-94.672
-96.034
-97.318
-98.52
-99.636
-100.662
-101.594
-102.43
-103.165
-103.798
-104.325
-104.746
-105.058
-105.259
-105.35
-105.329
-105.198
-104.955
-104.602
-104.141
-103.574
-102.901
-102.127
-101.254
-100.285
-99.224
-98.075
-96.842
-95.531
-94.146
-92.691
-91.174
-89.6
-87.975
-86.306
-84.598
-82.861
-81.099
-79.32
-77.532
-75.742
-73.957
-72.184
-70.43
-68.702
-67.006
-65.351
-63.74
-62.182
-60.681
-59.242
-57.871
-56.573
-55.351
-54.21
-53.152
-52.181
-51.299
-50.51
-49.813
-49.211
-48.704
-48.293
-47.977
-47.755
-47.626
-47.588
-47.638
-47.774
-47.993
-48.289
-48.66
-49.1
-49.605
-50.17
-50.788
-51.453
-52.161
-52.905
-53.679
-54.476
-55.291
-56.117
-56.948
-57.778
-58.602
-59.413
-60.207
-60.979
-61.722
-62.434
-63.108
-63.743
-64.333
-64.876
-65.369
-65.81
-66.197
-66.53
-66.807
-67.027
-67.192
-67.302
-67.358
-67.361
-67.313
-67.216
-67.073
-66.887
-66.661
-66.398
-66.101
-65.774
-65.421
-65.046
-64.651
-64.242
-63.821
-63.392
-62.958
-62.523
-62.091
-61.663
-61.242
-60.832
-60.433
-60.048
-59.679
-59.325
-58.989
-58.67
-58.368
-58.082
-57.813
-57.56
-57.32
-57.093
-56.876
-56.669
-56.468
-56.271
-56.076
-55.881
-55.682
-55.477
-55.264
-55.04
-54.803
-54.55
-54.28
-53.99
-53.678
-53.344
-52.984
-52.599
-52.187
-51.748
-51.281
-50.787
-50.265
-49.718
-49.144
-48.547
-47.927
-47.286
-46.626
-45.949
-45.258
-44.556
-43.844
-43.126
-42.405
-41.683
-40.964
-40.249
-39.543
-38.846
-38.163
-37.494
-36.842
-36.209
-35.596
-35.005
-34.436
-33.891
-33.369
-32.872
-32.399
-31.95
-31.523
-31.118
-30.734
-30.368
-30.019
-29.685
-29.363
-29.051
-28.745
-28.444
-28.144
-27.841
-27.533
-27.216
-26.887
-26.543
-26.18
-25.796
-25.387
-24.951
-24.486
-23.989
-23.459
-22.892
-22.289
-21.648
-20.967
-20.246
-19.485
-18.684
-17.843
-16.963
-16.045
-15.09
-14.101
-13.078
-12.025
-10.943
-9.835
-8.704
-7.553
-6.386
-5.205
-4.014
-2.816
-1.616
-0.417
0.778
1.964
3.139
4.299
5.44
6.561
7.657
8.725
9.765
10.772
11.745
12.682
13.581
14.442
15.265
16.047
16.791
17.495
18.162
18.792
19.386
19.948
20.479
20.983
21.461
21.918
22.358
22.784
23.202
23.616
24.031
24.452
24.885
25.334
25.806
26.306
26.839
27.411
28.028
28.695
29.419
30.206
31.06
31.987
32.992
34.08
35.255
36.522
37.884
39.344
40.904
42.568
44.336
46.209
48.188
50.274
52.463
54.757
57.152
59.645
62.234
64.914
67.68
70.527
73.451
76.444
79.501
82.615
85.778
88.983
92.222
95.487
98.767
102.055
105.339
108.61
111.859
115.075
118.248
121.368
124.425
127.41
130.313
133.126
135.839
138.445
140.934
143.301
145.537
147.637
149.593
151.401
153.055
154.553
155.894
157.074
158.093
158.953
159.656
160.205
160.602
160.849
160.948
160.905
160.723
160.412
159.977
159.427
158.774
158.029
157.206
156.314
155.361
154.351
153.288
152.182
151.042
149.882
148.718
147.563
146.439
145.371
144.383
143.489
142.698
142.009
141.425
140.956
140.612
140.406
140.341
140.41
140.609
140.93
141.345
141.818
142.291
142.696
142.983
143.11
143.039
142.741
142.172
141.279
140.039
138.436
136.446
134.119
131.531
128.794
126.123
123.743
121.839
120.599
120.172
120.486
121.367
122.612
123.857
124.804
125.229
124.871
123.609
121.742
119.765
118.125
117.448
118.273
121.184
127.004
136.247
148.917
164.741
183.395
204.393
226.324
246.492
261.875
269.547
269.377
264.01
254.483
241.232
220.171
182.48
122.827
37.502
-69.935
-185.311
-293.498
-377.708
-426.155
-439.3
-421.976
-382.58
-330.466
-270.12
-206.449
-146.747
-96.687
-60.639
-38.663
-24.371
-11.745
2.388
17.896
30.554
37.367
38.387
35.512
32.071
30.305
30.626
32.751
36.12
40.323
45.104
49.98
54.292
57.399
59.028
59.267
58.304
56.421
53.924
51.104
48.346
46.046
44.409
43.497
43.3
43.734
44.726
46.231
48.154
50.384
52.834
55.423
58.097
60.814
63.5
66.073
68.451
70.569
72.395
73.913
75.115
76.004
76.593
76.905
76.975
76.84
76.528
76.071
75.494
74.828
74.108
73.369
72.646
71.969
71.356
70.821
70.375
70.026
69.778
69.63
69.578
69.62
69.757
69.989
70.317
70.741
71.259
71.87
72.57
73.359
74.234
75.192
76.231
77.348
78.54
79.804
81.136
82.533
83.987
85.493
87.043
88.629
90.244
91.879
93.525
95.174
96.818
98.446
100.052
101.626
103.16
104.646
106.076
107.441
108.735
109.951
111.08
112.119
113.059
113.896
114.624
115.238
115.736
116.113
116.368
116.497
116.501
116.377
116.128
115.752
115.251
114.628
113.883
113.021
112.045
110.958
109.764
108.468
107.076
105.591
104.02
102.368
100.639
98.841
96.978
95.057
93.082
91.059
88.995
86.893
84.761
82.602
80.422
78.224
76.014
73.795
71.571
69.344
67.118
64.895
62.676
60.465
58.263
56.07
53.889
51.719
49.561
47.416
45.283
43.163
41.056
38.96
36.878
34.807
32.749
30.703
28.669
26.648
24.64
22.646
20.666
18.7
16.751
14.82
12.908
11.017
9.15
7.308
5.496
3.715
1.969
0.261
-1.406
-3.029
-4.603
-6.126
-7.593
-9.002
-10.349
-11.63
-12.842
-13.982
-15.049
-16.038
-16.947
-17.776
-18.521
-19.182
-19.757
-20.245
-20.647
-20.961
-21.188
-21.329
-21.385
-21.356
-21.246
-21.057
-20.79
-20.45
-20.04
-19.563
-19.023
-18.426
-17.774
-17.073
-16.327
-15.542
-14.721
-13.872
-12.997
-12.103
-11.194
-10.274
-9.349
-8.423
-7.5
-6.585
-5.681
-4.793
-3.925
-3.08
-2.261
-1.474
-0.719
-0.001
0.678
1.316
1.91
2.459
2.96
3.413
3.817
4.17
4.471
4.721
4.917
5.061
5.153
5.191
5.177
5.111
4.992
4.821
4.598
4.324
3.999
3.622
3.196
2.719
2.192
1.617
0.993
0.321
-0.397
-1.161
-1.97
-2.823
-3.718
-4.656
-5.633
-6.65
-7.705
-8.796
-9.923
-11.083
-12.275
-13.497
-14.748
-16.026
-17.328
-18.654
-20.001
-21.366
-22.747
-24.142
-25.548
-26.962
-28.382
-29.804
-31.225
-32.643
-34.054
-35.454
-36.841
-38.211
-39.561
-40.888
-42.189
-43.461
-44.7
-45.904
-47.069
-48.193
-49.274
-50.308
-51.293
-52.227
-53.108
-53.934
-54.704
-55.415
-56.067
-56.658
-57.189
-57.659
-58.066
-58.412
-58.697
-58.92
-59.083
-59.187
-59.232
-59.221
-59.154
-59.033
-58.861
-58.639
-58.37
-58.055
-57.698
-57.301
-56.866
-56.397
-55.895
-55.364
-54.808
-54.227
-53.626
-53.008
-52.373
-51.727
-51.069
-50.403
-49.73
-49.052
-48.371
-47.688
-47.003
-46.319
-45.635
-44.954
-44.275
-43.599
-42.926
-42.257
-41.591
-40.929
-40.271
-39.615
-38.963
-38.314
-37.667
-37.023
-36.381
-35.74
-35.1
-34.46
-33.82
-33.178
-32.535
-31.889
-31.24
-30.588
-29.933
-29.275
-28.615
-27.952
-27.287
-26.621
-25.955
-25.289
-24.624
-23.962
-23.303
-22.648
-21.998
-21.355
-20.72
-20.093
-19.475
-18.868
-18.271
-17.686
-17.113
-16.551
-16.002
-15.466
-14.942
-14.431
-13.933
-13.449
-12.979
-12.522
-12.079
-11.648
-11.231
-10.826
-10.432
-10.049
-9.677
-9.313
-8.958
-8.61
-8.269
-7.935
-7.605
-7.28
-6.958
-6.639
-6.323
-6.01
-5.699
-5.39
-5.085
-4.784
-4.488
-4.199
-3.919
-3.649
-3.39
-3.145
-2.915
-2.703
-2.511
-2.34
-2.193
-2.072
-1.979
-1.916
-1.885
-1.889
-1.929
-2.007
-2.123
-2.279
-2.476
-2.714
-2.994
-3.316
-3.679
-4.084
-4.53
-5.015
-5.537
-6.093
-6.682
-7.3
-7.942
-8.604
-9.283
-9.972
-10.667
-11.361
-12.05
-12.728
-13.388
-14.024
-14.629
-15.199
-15.725
-16.203
-16.627
-16.991
-17.29
-17.521
-17.678
-17.759
-17.76
-17.678
-17.511
-17.258
-16.917
-16.488
-15.972
-15.369
-14.683
-13.916
-13.072
-12.155
-11.17
-10.125
-9.025
-7.877
-6.69
-5.472
-4.231
-2.979
-1.724
-0.478
0.749
1.946
3.101
4.203
5.242
6.207
7.087
7.872
8.553
9.12
9.563
9.875
10.046
10.07
9.939
9.647
9.19
8.562
7.763
6.791
5.644
4.327
2.84
1.189
-0.623
-2.589
-4.704
-6.96
-9.349
-11.862
-14.485
-17.209
-20.019
-22.897
-25.826
-28.788
-31.766
-34.748
-37.721
-40.665
-43.566
-46.406
-49.166
-51.828
-54.37
-56.759
-58.971
-60.979
-62.768
-64.331
-65.665
-66.765
-67.625
-68.235
-68.592
-68.705
-68.58
-68.222
-67.639
-66.85
-65.898
-64.852
-63.776
-62.722
-61.722
-60.793
-59.959
-59.247
-58.689
-58.314
-58.111
-58.08
-58.251
-58.611
-59.102
-59.588
-59.772
-59.35
-58.109
-55.798
-52.201
-47.316
-41.232
-34.315
-27.312
-20.899
-15.665
-12.258
-11.086
-12.151
-15.236
-19.512
-23.472
-25.679
-24.666
-18.823
-6.911
11.767
37.634
69.532
104.172
137.828
166.296
187.123
202.067
213.805
223.739
228.915
218.213
177.424
96.101
-27.115
-178.5
-332.582
-463.04
-549.98
-586.246
-580.16
-544.781
-491.419
-430.215
-364.432
-297.407
-237.516
-188.883
-154.287
-132.83
-116.094
-99.069
-80.01
-59.433
-42.044
-29.623
-21.045
-14.451
-6.755
3.229
14.85
27.366
39.56
50.195
58.687
64.462
67.093
66.888
64.389
60.181
55.264
50.804
47.529
45.899
46.035
47.486
49.878
52.974
56.262
59.123
61.183
62.253
62.458
62.276
61.987
61.652
61.392
61.33
61.524
61.991
62.579
62.961
62.942
62.481
61.578
60.284
58.649
56.694
54.506
52.243
50.033
47.969
46.114
44.474
43.068
41.939
41.107
40.584
40.356
40.371
40.589
40.985
41.527
42.185
42.915
43.648
44.329
44.926
45.416
45.792
46.048
46.17
46.163
46.047
45.854
45.632
45.414
45.216
45.055
44.944
44.903
44.957
45.121
45.396
45.782
46.278
46.883
47.599
48.417
49.317
50.278
51.272
52.281
53.295
54.302
55.293
56.261
57.196
58.096
58.962
59.793
60.587
61.338
62.041
62.694
63.297
63.85
64.352
64.802
65.198
65.538
65.819
66.037
66.189
66.27
66.273
66.193
66.027
65.771
65.422
64.977
64.433
63.788
63.04
62.188
61.228
60.161
58.982
57.691
56.285
54.765
53.129
51.377
49.51
47.529
45.435
43.23
40.917
38.499
35.979
33.359
30.645
27.842
24.958
21.998
18.969
15.876
12.724
9.518
6.264
2.967
-0.366
-3.73
-7.117
-10.515
-13.912
-17.294
-20.649
-23.97
-27.249
-30.48
-33.653
-36.758
-39.781
-42.707
-45.521
-48.208
-50.753
-53.149
-55.389
-57.473
-59.412
-61.225
-62.92
-64.501
-65.953
-67.253
-68.398
-69.425
-70.382
-71.298
-72.206
-73.144
-74.126
-75.187
-76.343
-77.467
-78.383
-79.038
-79.333
-79.159
-78.769
-78.408
-78.107
-78.363
-78.824
-77.895
-75.663
-72.672
-70.801
-74.946
-85.086
-96.34
-101.427
-89.757
-59.521
-20.058
14.943
29.882
19.139
-9.332
-42.752
-68.744
-81.753
-85.785
-87.182
-88.561
-90.37
-89.345
-81.963
-71.169
-59.56
-50.189
-47.035
-47.687
-50.12
-53.045
-53.463
-52.513
-51.609
-50.937
-51.606
-52.958
-53.949
-54.549
-54.687
-54.648
-54.817
-55.19
-55.659
-56.163
-56.68
-57.214
-57.762
-58.309
-58.82
-59.275
-59.693
-60.087
-60.471
-60.864
-61.27
-61.684
-62.104
-62.529
-62.961
-63.408
-63.876
-64.363
-64.868
-65.386
-65.915
-66.458
-67.012
-67.576
-68.143
-68.709
-69.27
-69.83
-70.389
-70.945
-71.498
-72.045
-72.586
-73.122
-73.653
-74.179
-74.7
-75.215
-75.725
-76.228
-76.725
-77.216
-77.7
-78.177
-78.647
-79.109
-79.563
-80.009
-80.448
-80.88
-81.304
-81.721
-82.131
-82.535
-82.932
-83.322
-83.706
-84.085
-84.458
-84.825
-85.186
-85.541
-85.891
-86.233
-86.569
-86.897
-87.216
-87.527
-87.828
-88.119
-88.399
-88.667
-88.923
-89.166
-89.395
-89.609
-89.807
-89.987
-90.148
-90.29
-90.411
-90.51
-90.586
-90.638
-90.665
-90.666
-90.641
-90.588
-90.507
-90.396
-90.257
-90.088
-89.889
-89.66
-89.402
-89.113
-88.796
-88.449
-88.073
-87.669
-87.237
-86.778
-86.293
-85.782
-85.245
-84.686
-84.103
-83.499
-82.875
-82.233
-81.573
-80.897
-80.207
-79.503
-78.788
-78.061
-77.325
-76.58
-75.826
-75.065
-74.296
-73.52
-72.737
-71.947
-71.148
-70.341
-69.524
-68.696
-67.857
-67.004
-66.138
-65.255
-64.354
-63.434
-62.492
-61.526
-60.535
-59.516
-58.467
-57.384
-56.267
-55.113
-53.919
-52.684
-51.404
-50.078
-48.703
-47.279
-45.803
-44.274
-42.691
-41.054
-39.362
-37.617
-35.818
-33.967
-32.065
-30.114
-28.116
-26.074
-23.991
-21.871
-19.716
-17.531
-15.322
-13.094
-10.851
-8.6
-6.346
-4.096
-1.855
0.369
2.57
4.742
6.879
8.971
11.013
12.997
14.917
16.764
18.533
20.216
21.808
23.301
24.692
25.974
27.143
28.194
29.123
29.925
30.598
31.138
31.542
31.807
31.933
31.918
31.763
31.47
31.041
30.48
29.792
28.981
28.053
27.014
25.869
24.623
23.283
21.857
20.354
18.782
17.154
15.482
13.781
12.064
10.341
8.618
6.903
5.203
3.529
1.891
0.303
-1.22
-2.658
-3.984
-5.174
-6.208
-7.072
-7.764
-8.285
-8.634
-8.801
-8.778
-8.562
-8.155
-7.568
-6.8
-5.866
-4.796
-3.637
-2.463
-1.338
-0.302
0.609
1.368
1.955
2.327
2.443
2.3
1.876
1.144
0.143
-1.073
-2.363
-3.443
-4.053
-3.956
-2.872
-0.643
2.697
7.01
11.856
16.565
20.62
23.494
24.654
23.973
21.662
18.193
14.646
12.354
12.445
16.243
25.052
39.441
59.407
84.628
113.94
145.52
177.503
206.73
228.756
241.024
242.167
231.713
212.865
186.755
150.96
103.822
40.194
-43.324
-141.564
-246.003
-342.672
-415.085
-455.043
-461.368
-438.91
-397.759
-345.923
-288.361
-229.62
-174.398
-127.19
-91.122
-65.927
-46.905
-29.221
-10.642
8.411
24.83
36.256
42.686
45.704
47.655
50.06
53.485
57.87
62.796
68.073
73.56
78.882
83.733
87.79
90.643
92.236
92.699
92.177
90.966
89.375
87.647
86.066
84.916
84.328
84.346
84.965
86.098
87.676
89.641
91.898
94.351
96.914
99.518
102.103
104.609
106.965
109.091
110.931
112.453
113.643
114.501
115.036
115.267
115.222
114.944
114.475
113.853
113.113
112.29
111.418
110.537
109.69
108.913
108.24
107.691
107.282
107.026
106.928
106.993
107.216
107.592
108.115
108.781
109.587
110.531
111.607
112.808
114.127
115.557
117.089
118.716
120.43
122.225
124.092
126.024
128.014
130.056
132.143
134.266
136.417
138.586
140.766
142.949
145.127
147.293
149.439
151.561
153.652
155.709
157.727
159.703
161.634
163.517
165.35
167.132
168.861
170.537
172.159
173.728
175.243
176.705
178.115
179.473
180.78
182.037
183.246
184.406
185.52
186.587
187.609
188.586
189.518
190.406
191.249
192.045
192.795
193.496
194.146
194.743
195.285
195.768
196.189
196.544
196.831
197.044
197.181
197.238
197.211
197.096
196.89
196.589
196.191
195.693
195.093
194.389
193.58
192.663
191.64
190.508
189.27
187.925
186.474
184.919
183.264
181.51
179.661
177.721
175.696
173.591
171.411
169.164
166.856
164.494
162.087
159.642
157.167
154.671
152.162
149.649
147.141
144.646
142.171
139.727
137.319
134.955
132.643
130.39
128.2
126.081
124.038
122.074
120.196
118.407
116.711
115.109
113.606
112.201
110.896
109.692
108.588
107.583
106.676
105.864
105.144
104.515
103.971
103.509
103.124
102.813
102.569
102.388
102.264
102.191
102.165
102.18
102.231
102.312
102.418
102.546
102.69
102.846
103.01
103.178
103.346
103.511
103.668
103.816
103.952
104.072
104.176
104.261
104.326
104.37
104.392
104.391
104.369
104.323
104.256
104.167
104.057
103.928
103.779
103.612
103.428
103.228
103.013
102.785
102.542
102.287
102.02
101.739
101.446
101.14
100.82
100.486
100.137
99.772
99.39
98.99
98.57
98.13
97.668
97.181
96.669
96.129
95.559
94.958
94.323
93.653
92.944
92.196
91.407
90.573
89.694
88.768
87.792
86.766
85.688
84.557
83.372
82.134
80.841
79.495
78.096
76.645
75.144
73.593
71.994
70.351
68.664
66.936
65.17
63.369
61.535
59.672
57.782
55.87
53.939
51.992
50.032
48.063
46.089
44.114
42.14
40.171
38.211
36.263
34.331
32.418
30.526
28.66
26.821
25.013
23.236
21.493
19.786
18.115
16.482
14.887
13.33
11.811
10.331
8.889
7.483
6.113
4.779
3.477
2.208
0.97
-0.241
-1.424
-2.583
-3.72
-4.836
-5.935
-7.018
-8.088
-9.148
-10.2
-11.247
-12.291
-13.334
-14.381
-15.432
-16.491
-17.559
-18.64
-19.735
-20.845
-21.972
-23.117
-24.278
-25.457
-26.655
-27.873
-29.11
-30.367
-31.643
-32.936
-34.248
-35.576
-36.918
-38.271
-39.63
-40.993
-42.359
-43.727
-45.096
-46.463
-47.821
-49.165
-50.489
-51.788
-53.059
-54.295
-55.489
-56.638
-57.74
-58.797
-59.811
-60.781
-61.702
-62.568
-63.369
-64.106
-64.792
-65.44
-66.068
-66.681
-67.261
-67.806
-68.32
-68.806
-69.286
-69.747
-70.124
-70.44
-70.794
-71.275
-72.006
-72.983
-74.015
-75.034
-76.108
-77.133
-77.919
-78.241
-77.733
-76.396
-74.678
-72.822
-70.891
-69.102
-67.664
-66.895
-67.365
-69.12
-71.633
-74.589
-77.798
-81.042
-84.246
-87.175
-89.343
-90.694
-91.603
-92.313
-93.031
-93.893
-94.854
-95.992
-97.54
-99.531
-101.827
-104.325
-106.909
-109.531
-112.255
-115.088
-117.986
-120.939
-123.953
-127.037
-130.215
-133.485
-136.816
-140.186
-143.579
-146.983
-150.396
-153.814
-157.227
-160.627
-164.003
-167.346
-170.648
-173.9
-177.096
-180.227
-183.285
-186.263
-189.154
-191.953
-194.656
-197.256
-199.745
-202.114
-204.358
-206.469
-208.444
-210.278
-211.967
-213.506
-214.894
-216.127
-217.206
-218.128
-218.894
-219.505
-219.961
-220.266
-220.423
-220.435
-220.308
-220.047
-219.657
-219.146
-218.52
-217.787
-216.954
-216.03
-215.024
-213.945
-212.802
-211.605
-210.362
-209.084
-207.78
-206.459
-205.132
-203.807
-202.495
-201.205
-199.946
-198.727
-197.558
-196.446
-195.399
-194.424
-193.529
-192.717
-191.994
-191.364
-190.83
-190.394
-190.059
-189.824
-189.692
-189.661
-189.732
-189.903
-190.17
-190.532
-190.982
-191.518
-192.131
-192.814
-193.561
-194.363
-195.214
-196.105
-197.027
-197.97
-198.923
-199.875
-200.814
-201.728
-202.605
-203.433
-204.2
-204.9
-205.527
-206.077
-206.551
-206.944
-207.25
-207.468
-207.593
-207.618
-207.537
-207.339
-207.014
-206.56
-205.971
-205.245
-204.378
-203.365
-202.201
-200.885
-199.407
-197.772
-195.986
-194.057
-192.006
-189.85
-187.623
-185.381
-183.181
-181.084
-179.152
-177.427
-175.97
-174.866
-174.11
-173.65
-173.399
-173.169
-172.83
-172.318
-171.459
-170.113
-168.351
-166.34
-164.432
-163.165
-162.812
-163.522
-165.604
-169.159
-173.922
-179.386
-184.631
-188.553
-190.456
-189.716
-185.41
-176.925
-164.195
-147.48
-127.434
-104.927
-80.703
-56.606
-36.132
-22.546
-17.425
-19.059
-23.865
-29.555
-37.753
-56.698
-95.283
-159.268
-249.506
-355.348
-461.694
-554.075
-618.377
-649.572
-650.098
-623.633
-577.08
-518.229
-451.893
-386.181
-331.518
-292.431
-271.403
-265.142
-262.972
-258.979
-250.944
-239.351
-229.431
-223.359
-219.777
-217.121
-213.022
-206.475
-198.245
-189.186
-180.085
-171.687
-164.698
-159.556
-156.399
-155.179
-155.568
-157.191
-159.771
-162.92
-166.131
-169.034
-171.383
-173.038
-174.013
-174.319
-173.928
-172.858
-171.167
-168.911
-166.169
-163.012
-159.486
-155.654
-151.602
-147.422
-143.229
-139.137
-135.22
-131.535
-128.114
-124.976
-122.138
-119.608
-117.371
-115.399
-113.659
-112.121
-110.758
-109.545
-108.448
-107.428
-106.441
-105.445
-104.411
-103.321
-102.162
-100.919
-99.579
-98.133
-96.578
-94.921
-93.167
-91.314
-89.358
-87.29
-85.104
-82.802
-80.38
-77.837
-75.165
-72.356
-69.404
-66.311
-63.085
-59.735
-56.268
-52.682
-48.968
-45.123
-41.158
-37.11
-33.022
-28.921
-24.807
-20.656
-16.457
-12.244
-8.034
-3.768
0.657
5.318
10.212
15.157
19.889
24.349
28.539
32.356
35.872
39.274
42.662
46.662
51.586
56.524
61.768
68.3
77.606
93.191
114.491
136.615
154.206
160.276
153.862
140.97
126.942
117.449
114.336
114.229
115.696
118.491
122.003
127.134
134.577
143.273
154.116
168.268
182.779
195.648
204.282
205.606
202.764
198.815
195.777
196.38
199.001
201.987
205.112
207.393
209.353
211.512
213.535
215.479
217.303
218.899
220.39
221.835
223.205
224.534
225.86
227.187
228.506
229.791
230.995
232.086
233.098
234.066
235.005
235.932
236.824
237.637
238.396
239.144
239.785
240.205
240.476
240.595
240.542
240.575
240.018
238.214
236.103
233.967
233.536
236.885
241.716
246.502
248.962
245.967
240.284
234.26
229.502
228.668
229.858
231.145
232.102
231.555
230.187
228.874
227.452
226.033
224.559
222.855
221.038
219.203
217.32
215.385
213.411
211.398
209.34
207.238
205.076
202.839
200.536
198.179
195.769
193.309
190.802
188.25
185.658
183.033
180.376
177.689
174.976
172.238
169.478
166.7
163.906
161.098
158.279
155.452
152.618
149.779
146.937
144.094
141.252
138.412
135.574
132.741
129.914
127.092
124.277
121.469
118.669
115.876
113.089
110.31
107.537
104.771
102.01
99.254
96.503
93.757
91.017
88.281
85.551
82.827
80.11
77.4
74.699
72.008
69.329
66.662
64.01
61.376
58.76
56.166
53.595
51.052
48.537
46.055
43.609
41.2
38.834
36.513
34.241
32.021
29.858
27.754
25.715
23.743
21.842
20.016
18.268
16.6
15.016
13.518
12.108
10.789
9.561
8.428
7.389
6.446
5.598
4.847
4.193
3.635
3.173
2.807
2.535
2.358
2.273
2.28
2.378
2.565
2.84
3.2
3.644
4.17
4.774
5.455
6.21
7.037
7.932
8.894
9.919
11.005
12.148
13.347
14.599
15.9
17.248
18.641
20.076
21.551
23.063
24.61
26.19
27.799
29.435
31.095
32.777
34.476
36.191
37.918
39.653
41.392
43.134
44.873
46.607
48.333
50.046
51.744
53.423
55.081
56.713
58.317
59.89
61.43
62.933
64.398
65.822
67.204
68.54
69.83
71.072
72.264
73.405
74.495
75.532
76.517
77.449
78.33
79.159
79.939
80.671
81.358
82
82.602
83.166
83.696
84.194
84.666
85.113
85.542
85.955
86.358
86.754
87.148
87.544
87.946
88.358
88.785
89.23
89.697
90.189
90.71
91.263
91.851
92.477
93.143
93.851
94.604
95.402
96.247
97.138
98.076
99.061
100.092
101.168
102.288
103.449
104.651
105.889
107.161
108.465
109.796
111.152
112.527
113.919
115.323
116.735
118.15
119.566
120.977
122.379
123.768
125.139
126.49
127.814
129.11
130.372
131.598
132.784
133.927
135.025
136.075
137.074
138.022
138.916
139.754
140.537
141.263
141.932
142.544
143.098
143.596
144.037
144.424
144.756
145.036
145.265
145.445
145.577
145.663
145.706
145.706
145.667
145.591
145.481
145.337
145.164
144.963
144.736
144.486
144.214
143.923
143.615
143.29
142.951
142.599
142.235
141.86
141.476
141.083
140.682
140.274
139.859
139.437
139.009
138.575
138.135
137.689
137.238
136.782
136.321
135.855
135.385
134.911
134.432
133.95
133.465
132.976
132.485
131.993
131.499
131.004
130.511
130.019
129.53
129.045
128.566
128.094
127.632
127.18
126.741
126.317
125.91
125.523
125.157
124.814
124.498
124.209
123.95
123.722
123.527
123.366
123.241
123.153
123.102
123.088
123.112
123.174
123.273
123.407
123.577
123.779
124.013
124.276
124.565
124.878
125.211
125.56
125.923
126.293
126.666
127.038
127.402
127.752
128.082
128.385
128.656
128.886
129.069
129.197
129.264
129.263
129.186
129.027
128.777
128.43
127.978
127.416
126.736
125.934
125.003
123.94
122.743
121.408
119.936
118.325
116.575
114.688
112.663
110.501
108.203
105.774
103.217
100.539
97.747
94.85
91.86
88.787
85.643
82.432
79.161
75.839
72.475
69.08
65.669
62.259
58.87
55.528
52.254
49.074
46.005
43.058
40.242
37.56
35.021
32.643
30.438
28.41
26.562
24.888
23.377
22.01
20.751
19.546
18.345
17.106
15.791
14.363
12.792
11.049
9.098
6.916
4.478
1.731
-1.294
-4.505
-7.761
-10.799
-13.364
-15.276
-16.279
-16.11
-14.774
-12.409
-9.35
-6.314
-3.833
-2.238
-2.059
-3.655
-6.864
-11.336
-16.277
-20.235
-22.067
-20.748
-14.841
-3.354
13.899
36.858
64.862
96.298
129.572
161.917
188.889
206.884
213.766
209.697
197.359
178.642
152.225
113.418
55.786
-25.454
-128.492
-242.935
-353.201
-441.863
-496.684
-515.706
-503.655
-469.252
-420.664
-362.687
-299.416
-236.798
-182.935
-143.599
-120.726
-110.459
-103.822
-95.207
-82.875
-68.429
-56.839
-50.016
-46.768
-45.159
-42.416
-37.48
-31.003
-23.586
-15.813
-8.136
-0.848
5.554
10.471
13.665
15.231
15.375
14.364
12.432
9.796
6.749
3.64
0.72
-1.88
-4.105
-5.959
-7.44
-8.53
-9.226
-9.565
-9.594
-9.347
-8.868
-8.179
-7.298
-6.252
-5.064
-3.746
-2.334
-0.871
0.615
2.082
3.496
4.826
6.021
7.049
7.9
8.571
9.075
9.425
9.618
9.648
9.509
9.183
8.67
7.978
7.109
6.082
4.92
3.653
2.331
0.997
-0.326
-1.62
-2.878
-4.096
-5.261
-6.361
-7.389
-8.329
-9.171
-9.907
-10.525
-11.024
-11.409
-11.691
-11.89
-12.026
-12.111
-12.151
-12.154
-12.122
-12.059
-11.969
-11.851
-11.708
-11.544
-11.365
-11.18
-10.993
-10.808
-10.628
-10.453
-10.284
-10.122
-9.97
-9.829
-9.704
-9.598
-9.515
-9.463
-9.447
-9.471
-9.538
-9.653
-9.816
-10.032
-10.302
-10.626
-11.008
-11.447
-11.946
-12.505
-13.125
-13.808
-14.552
-15.357
-16.223
-17.148
-18.131
-19.17
-20.262
-21.407
-22.603
-23.846
-25.137
-26.472
-27.849
-29.267
-30.724
-32.217
-33.744
-35.303
-36.891
-38.506
-40.146
-41.808
-43.491
-45.193
-46.912
-48.647
-50.395
-52.155
-53.926
-55.706
-57.493
-59.285
-61.083
-62.884
-64.688
-66.495
-68.304
-70.114
-71.925
-73.736
-75.547
-77.356
-79.163
-80.966
-82.764
-84.556
-86.34
-88.115
-89.878
-91.628
-93.362
-95.078
-96.774
-98.446
-100.092
-101.709
-103.294
-104.845
-106.358
-107.832
-109.263
-110.649
-111.989
-113.278
-114.516
-115.7
-116.827
-117.896
-118.905
-119.852
-120.736
-121.556
-122.311
-123.001
-123.625
-124.185
-124.681
-125.114
-125.485
-125.795
-126.048
-126.245
-126.389
-126.484
-126.534
-126.542
-126.512
-126.449
-126.358
-126.243
-126.108
-125.958
-125.798
-125.633
-125.466
-125.302
-125.146
-125.003
-124.876
-124.769
-124.687
-124.633
-124.611
-124.624
-124.674
-124.765
-124.898
-125.075
-125.299
-125.571
-125.892
-126.263
-126.684
-127.156
-127.679
-128.25
-128.871
-129.538
-130.252
-131.009
-131.808
-132.647
-133.523
-134.434
-135.377
-136.35
-137.349
-138.371
-139.414
-140.473
-141.547
-142.63
-143.72
-144.814
-145.908
-146.998
-148.083
-149.157
-150.219
-151.264
-152.29
-153.292
-154.269
-155.216
-156.131
-157.011
-157.853
-158.655
-159.414
-160.127
-160.793
-161.41
-161.974
-162.485
-162.941
-163.339
-163.679
-163.96
-164.18
-164.34
-164.438
-164.474
-164.45
-164.364
-164.218
-164.012
-163.747
-163.425
-163.047
-162.615
-162.131
-161.597
-161.016
-160.391
-159.725
-159.02
-158.28
-157.508
-156.708
-155.883
-155.038
-154.176
-153.301
-152.418
-151.531
-150.643
-149.76
-148.884
-148.021
-147.174
-146.346
-145.54
-144.761
-144.01
-143.289
-142.602
-141.949
-141.331
-140.75
-140.207
-139.699
-139.228
-138.793
-138.391
-138.021
-137.681
-137.369
-137.083
-136.818
-136.571
-136.34
-136.12
-135.906
-135.695
-135.481
-135.259
-135.024
-134.771
-134.494
-134.187
-133.846
-133.464
-133.037
-132.559
-132.025
-131.432
-130.774
-130.049
-129.253
-128.383
-127.437
-126.415
-125.315
-124.137
-122.881
-121.549
-120.142
-118.661
-117.11
-115.49
-113.806
-112.062
-110.262
-108.41
-106.511
-104.573
-102.6
-100.599
-98.577
-96.541
-94.498
-92.457
-90.424
-88.407
-86.415
-84.456
-82.536
-80.664
-78.847
-77.092
-75.404
-73.789
-72.253
-70.799
-69.433
-68.155
-66.97
-65.879
-64.884
-63.984
-63.18
-62.47
-61.855
-61.332
-60.899
-60.552
-60.289
-60.106
-59.998
-59.96
-59.988
-60.076
-60.217
-60.406
-60.635
-60.897
-61.186
-61.493
-61.812
-62.135
-62.454
-62.764
-63.058
-63.33
-63.575
-63.788
-63.964
-64.1
-64.193
-64.24
-64.239
-64.189
-64.089
-63.939
-63.741
-63.496
-63.205
-62.87
-62.494
-62.081
-61.634
-61.157
-60.654
-60.13
-59.59
-59.041
-58.488
-57.938
-57.398
-56.874
-56.374
-55.906
-55.474
-55.087
-54.75
-54.469
-54.249
-54.096
-54.013
-54.007
-54.079
-54.233
-54.474
-54.803
-55.221
-55.728
-56.322
-57.004
-57.769
-58.614
-59.532
-60.518
-61.567
-62.673
-63.832
-65.036
-66.277
-67.547
-68.835
-70.132
-71.425
-72.702
-73.947
-75.149
-76.301
-77.398
-78.434
-79.403
-80.296
-81.101
-81.807
-82.399
-82.861
-83.169
-83.304
-83.25
-82.999
-82.555
-81.915
-81.073
-80.024
-78.76
-77.279
-75.591
-73.703
-71.625
-69.388
-67.032
-64.612
-62.202
-59.855
-57.621
-55.548
-53.673
-52.045
-50.722
-49.72
-49.065
-48.791
-48.858
-49.206
-49.717
-50.163
-50.317
-49.992
-49.001
-47.196
-44.611
-41.368
-37.718
-34.095
-30.888
-28.426
-26.944
-26.501
-26.844
-27.504
-27.876
-27.145
-24.461
-18.943
-9.829
3.37
20.618
41.34
64.903
90.375
116.133
140.231
159.895
171.369
172.667
163.036
142.505
114.44
80.326
38.389
-12.757
-78.55
-162.015
-256.353
-352.046
-433.41
-484.166
-501.462
-487.793
-451.954
-406.563
-353.631
-293.697
-227.532
-155.868
-89.785
-39.29
-9.163
-0.816
-3.851
-6.893
-3.712
10.376
30.864
50.061
64.474
70.871
70.689
69.035
68.266
69.933
74.181
79.083
83.921
88.735
93.513
98.454
103.27
107.616
111.542
115.155
118.557
121.752
124.56
127.069
129.706
132.729
136.238
140.263
144.682
149.477
154.775
160.514
166.461
172.424
178.211
183.698
188.883
193.734
198.174
202.188
205.786
208.987
211.849
214.407
216.673
218.667
220.412
221.938
223.289
224.511
225.646
226.736
227.814
228.903
230.025
231.195
232.425
233.722
235.088
236.52
238.02
239.591
241.237
242.964
244.768
246.648
248.599
250.619
252.705
254.857
257.071
259.343
261.67
264.05
266.479
268.956
271.474
274.028
276.609
279.211
281.824
284.442
287.056
289.657
292.236
294.786
297.299
299.768
302.185
304.544
306.838
309.061
311.208
313.274
315.253
317.141
318.936
320.634
322.233
323.731
325.127
326.421
327.613
328.704
329.695
330.587
331.384
332.088
332.701
333.227
333.669
334.032
334.319
334.533
334.678
334.758
334.775
334.734
334.635
334.483
334.277
334.019
333.711
333.352
332.942
332.48
331.967
331.399
330.775
330.092
329.348
328.539
327.661
326.711
325.682
324.571
323.372
322.08
320.689
319.192
317.586
315.863
314.019
312.048
309.945
307.707
305.327
302.804
300.134
297.314
294.344
291.223
287.95
284.527
280.956
277.238
273.379
269.382
265.252
260.996
256.62
252.132
247.54
242.852
238.079
233.229
228.314
223.345
218.333
213.288
208.224
203.152
198.082
193.028
188
183.01
178.068
173.184
168.368
163.629
158.975
154.413
149.951
145.593
141.344
137.207
133.184
129.278
125.487
121.811
118.248
114.796
111.45
108.207
105.06
102.004
99.031
96.135
93.308
90.54
87.824
85.149
82.508
79.89
77.286
74.688
72.086
69.471
66.835
64.171
61.47
58.727
55.934
53.087
50.181
47.213
44.18
41.08
37.914
34.682
31.385
28.026
24.608
21.136
17.614
14.049
10.448
6.817
3.164
-0.501
-4.169
-7.833
-11.481
-15.105
-18.694
-22.238
-25.729
-29.156
-32.511
-35.783
-38.965
-42.049
-45.026
-47.889
-50.633
-53.25
-55.737
-58.09
-60.305
-62.379
-64.313
-66.105
-67.757
-69.269
-70.643
-71.885
-72.996
-73.982
-74.849
-75.602
-76.249
-76.796
-77.251
-77.623
-77.919
-78.148
-78.319
-78.441
-78.521
-78.57
-78.594
-78.603
-78.604
-78.605
-78.614
-78.637
-78.681
-78.751
-78.854
-78.992
-79.171
-79.393
-79.66
-79.974
-80.335
-80.745
-81.201
-81.704
-82.25
-82.838
-83.464
-84.125
-84.816
-85.533
-86.27
-87.024
-87.787
-88.554
-89.319
-90.076
-90.82
-91.544
-92.242
-92.908
-93.537
-94.122
-94.659
-95.142
-95.566
-95.926
-96.22
-96.442
-96.591
-96.664
-96.658
-96.573
-96.407
-96.159
-95.83
-95.419
-94.928
-94.357
-93.708
-92.982
-92.181
-91.308
-90.364
-89.352
-88.275
-87.134
-85.932
-84.673
-83.357
-81.987
-80.566
-79.095
-77.576
-76.012
-74.404
-72.753
-71.06
-69.325
-67.55
-65.734
-63.877
-61.978
-60.035
-58.047
-56.012
-53.928
-51.793
-49.604
-47.357
-45.051
-42.681
-40.245
-37.74
-35.162
-32.507
-29.774
-26.96
-24.061
-21.075
-18.001
-14.836
-11.578
-8.228
-4.782
-1.241
2.397
6.131
9.961
13.887
17.907
22.021
26.225
30.517
34.895
39.354
43.89
48.5
53.178
57.919
62.717
67.566
72.459
77.39
82.352
87.337
92.339
97.349
102.361
107.367
112.36
117.332
122.276
127.185
132.051
136.866
141.625
146.319
150.94
155.484
159.941
164.306
168.573
172.734
176.785
180.719
184.531
188.216
191.769
195.187
198.464
201.598
204.585
207.422
210.106
212.637
215.01
217.226
219.282
221.178
222.913
224.486
225.896
227.145
228.23
229.154
229.917
230.52
230.964
231.251
231.382
231.361
231.189
230.869
230.405
229.8
229.056
228.179
227.173
226.041
224.788
223.419
221.94
220.354
218.667
216.885
215.012
213.054
211.017
208.905
206.725
204.481
202.181
199.828
197.429
194.989
192.514
190.008
187.477
184.925
182.358
179.779
177.194
174.606
172.019
169.436
166.861
164.296
161.743
159.203
156.678
154.169
151.674
149.194
146.728
144.274
141.83
139.394
136.963
134.534
132.103
129.665
127.216
124.751
122.264
119.751
117.204
114.618
111.986
109.303
106.562
103.757
100.879
97.921
94.877
91.739
88.5
85.151
81.686
78.097
74.379
70.526
66.531
62.389
58.097
53.648
49.041
44.27
39.334
34.231
28.959
23.517
17.905
12.124
6.177
0.065
-6.208
-12.637
-19.217
-25.942
-32.806
-39.803
-46.925
-54.163
-61.511
-68.958
-76.494
-84.108
-91.788
-99.521
-107.295
-115.095
-122.912
-130.731
-138.544
-146.342
-154.117
-161.86
-169.557
-177.193
-184.75
-192.207
-199.545
-206.745
-213.79
-220.665
-227.361
-233.867
-240.18
-246.301
-252.225
-257.939
-263.436
-268.711
-273.773
-278.647
-283.371
-287.991
-292.557
-297.12
-301.734
-306.448
-311.302
-316.324
-321.52
-326.872
-332.369
-338.011
-343.798
-349.731
-355.773
-361.848
-367.854
-373.663
-379.147
-384.186
-388.619
-392.249
-394.931
-396.593
-397.306
-397.332
-396.905
-396.163
-395.32
-394.661
-394.411
-394.666
-395.16
-395.173
-394.015
-391.312
-386.557
-379.13
-368.875
-356.013
-342.112
-330.355
-322.831
-320.697
-324.38
-332.759
-347.022
-369.919
-403.997
-452.837
-517.355
-595.606
-682.242
-767.468
-840.149
-889.377
-909.937
-902.627
-871.784
-825.841
-771.759
-715.532
-664.33
-622.185
-590.695
-568.616
-550.333
-531.151
-509.436
-486.09
-464.944
-448.912
-438.537
-432.814
-429.321
-426.292
-422.984
-419.167
-415.118
-410.935
-406.479
-401.838
-397.274
-393.145
-389.946
-387.885
-386.873
-386.764
-387.311
-388.239
-389.301
-390.201
-390.607
-390.334
-389.321
-387.567
-385.158
-382.174
-378.674
-374.755
-370.529
-366.092
-361.528
-356.919
-352.344
-347.894
-343.667
-339.738
-336.157
-332.954
-330.147
-327.741
-325.73
-324.092
-322.799
-321.825
-321.143
-320.731
-320.566
-320.621
-320.864
-321.259
-321.774
-322.384
-323.071
-323.825
-324.638
-325.506
-326.429
-327.414
-328.468
-329.596
-330.8
-332.076
-333.419
-334.827
-336.298
-337.832
-339.43
-341.088
-342.802
-344.566
-346.375
-348.222
-350.099
-351.992
-353.887
-355.765
-357.616
-359.433
-361.21
-362.945
-364.626
-366.229
-367.731
-369.102
-370.331
-371.424
-372.375
-373.174
-373.81
-374.254
-374.516
-374.66
-374.656
-374.405
-373.817
-372.769
-371.269
-369.511
-367.568
-365.378
-363.053
-360.793
-358.832
-357.552
-356.959
-356.614
-356.289
-355.93
-355.337
-354.314
-352.554
-349.5
-345.126
-339.978
-334.389
-328.565
-322.742
-317.013
-311.629
-307.094
-303.477
-300.416
-297.678
-295.068
-292.46
-289.911
-287.35
-284.551
-281.488
-278.307
-275.114
-272.031
-269.104
-266.271
-263.524
-260.905
-258.42
-256.057
-253.802
-251.622
-249.511
-247.49
-245.569
-243.754
-242.043
-240.424
-238.885
-237.422
-236.028
-234.695
-233.417
-232.184
-230.987
-229.815
-228.66
-227.512
-226.361
-225.198
-224.011
-222.789
-221.523
-220.208
-218.838
-217.406
-215.906
-214.33
-212.672
-210.927
-209.089
-207.155
-205.119
-202.978
-200.729
-198.369
-195.896
-193.311
-190.611
-187.797
-184.868
-181.826
-178.672
-175.409
-172.04
-168.569
-165.001
-161.341
-157.593
-153.763
-149.856
-145.877
-141.831
-137.724
-133.56
-129.345
-125.085
-120.788
-116.462
-112.113
-107.752
-103.386
-99.024
-94.675
-90.349
-86.05
-81.786
-77.564
-73.391
-69.276
-65.228
-61.248
-57.338
-53.498
-49.724
-46.015
-42.363
-38.755
-35.178
-31.62
-28.071
-24.531
-20.998
-17.471
-13.943
-10.411
-6.874
-3.343
0.164
3.638
7.065
10.434
13.731
16.92
19.971
22.863
25.579
28.118
30.485
32.681
34.705
36.57
38.298
39.937
41.547
43.172
44.855
46.645
48.589
50.765
53.251
56.107
59.389
63.141
67.394
72.191
77.576
83.557
90.124
97.236
104.826
112.845
121.246
129.969
138.95
148.095
157.299
166.472
175.528
184.372
192.913
201.049
208.671
215.711
222.129
227.911
233.073
237.621
241.561
244.907
247.694
249.973
251.809
253.26
254.388
255.269
255.993
256.67
257.415
258.309
259.413
260.764
262.384
264.297
266.529
269.095
271.996
275.225
278.771
282.628
286.789
291.237
295.931
300.808
305.806
310.883
316.009
321.17
326.356
331.551
336.747
341.94
347.132
352.331
357.533
362.729
367.909
373.062
378.198
383.345
388.522
393.741
399.007
404.317
409.67
415.068
420.506
425.971
431.451
436.933
442.409
447.882
453.352
458.821
464.281
469.717
475.118
480.475
485.781
491.031
496.219
501.335
506.376
511.344
516.24
521.065
525.818
530.493
535.087
539.598
544.025
548.367
552.627
556.801
560.893
564.901
568.829
572.678
576.448
580.14
583.752
587.284
590.738
594.112
597.408
600.626
603.765
606.827
609.812
612.722
615.558
618.32
621.01
623.63
626.181
628.666
631.086
633.444
635.743
637.984
640.172
642.308
644.396
646.438
648.438
650.398
652.322
654.21
656.067
657.893
659.691
661.463
663.21
664.934
666.635
668.314
669.973
671.609
673.224
674.815
676.382
677.92
679.427
680.9
682.333
683.721
685.058
686.339
687.557
688.703
689.77
690.751
691.636
692.416
693.083
693.627
694.038
694.309
694.428
694.387
694.178
693.791
693.22
692.455
691.49
690.317
688.932
687.329
685.502
683.449
681.167
678.653
675.908
672.932
669.727
666.296
662.643
658.773
654.692
650.408
645.929
641.263
636.422
631.415
626.253
620.95
615.517
609.968
604.316
598.576
592.76
586.883
580.959
575.002
569.025
563.041
557.065
551.109
545.184
539.303
533.477
527.715
522.028
516.422
510.907
505.487
500.168
494.953
489.844
484.845
479.955
475.173
470.498
465.929
461.46
457.089
452.81
448.617
444.503
440.462
436.484
432.562
428.687
424.849
421.04
417.248
413.465
409.68
405.883
402.063
398.211
394.316
390.368
386.357
382.275
378.112
373.861
369.513
365.063
360.504
355.831
351.039
346.123
341.08
335.907
330.602
325.162
319.587
313.876
308.029
302.047
295.933
289.687
283.314
276.815
270.196
263.459
256.609
249.652
242.593
235.438
228.193
220.865
213.462
205.992
198.461
190.877
183.248
175.582
167.885
160.163
152.424
144.673
136.918
129.164
121.418
113.687
105.977
98.297
90.654
83.055
75.507
68.016
60.588
53.228
45.941
38.731
31.602
24.559
17.609
10.759
4.016
-2.617
-9.134
-15.537
-21.825
-27.997
-34.052
-39.991
-45.808
-51.499
-57.051
-62.444
-67.665
-72.702
-77.548
-82.202
-86.661
-90.925
-94.997
-98.874
-102.559
-106.055
-109.366
-112.503
-115.485
-118.346
-121.141
-123.939
-126.802
-129.792
-132.952
-136.323
-139.955
-143.889
-148.161
-152.813
-157.852
-163.307
-169.241
-175.625
-182.36
-189.281
-196.08
-202.466
-208.262
-213.206
-217.017
-219.672
-221.258
-222.069
-222.764
-223.824
-225.506
-228.212
-232.233
-237.432
-243.52
-249.811
-255.02
-258.144
-258.337
-254.509
-245.901
-232.178
-213.132
-189.145
-161.4
-131.844
-103.341
-78.859
-60.674
-48.852
-42.475
-42.797
-52.54
-76.749
-120.567
-184.236
-265.247
-359.574
-461.137
-563.727
-659.123
-735.733
-783.886
-798.852
-782.085
-742.383
-689.541
-631.99
-576.58
-525.919
-482.452
-446.575
-415.467
-387.876
-361.809
-337.093
-317.04
-303.054
-295.684
-294.455
-296.541
-300.11
-304.459
-308.85
-313.132
-317.141
-320.286
-322.378
-323.731
-324.512
-324.815
-324.772
-324.273
-323.396
-322.584
-322
-321.545
-321.208
-320.92
-320.689
-320.756
-321.096
-321.356
-321.377
-321.113
-320.545
-319.799
-318.914
-317.781
-316.468
-315.206
-314.151
-313.431
-313.11
-313.134
-313.495
-314.231
-315.329
-316.74
-318.413
-320.279
-322.292
-324.439
-326.69
-329.008
-331.349
-333.656
-335.887
-338.017
-340.022
-341.883
-343.587
-345.117
-346.466
-347.632
-348.613
-349.405
-350.005
-350.407
-350.607
-350.605
-350.402
-350.005
-349.418
-348.645
-347.688
-346.554
-345.245
-343.767
-342.127
-340.327
-338.376
-336.282
-334.055
-331.705
-329.245
-326.686
-324.041
-321.322
-318.542
-315.713
-312.848
-309.957
-307.054
-304.15
-301.257
-298.386
-295.549
-292.757
-290.018
-287.344
-284.741
-282.219
-279.783
-277.441
-275.199
-273.061
-271.031
-269.114
-267.313
-265.63
-264.067
-262.624
-261.303
-260.103
-259.022
-258.059
-257.21
-256.472
-255.841
-255.312
-254.878
-254.534
-254.272
-254.086
-253.966
-253.903
-253.889
-253.913
-253.965
-254.034
-254.108
-254.177
-254.228
-254.249
-254.23
-254.158
-254.02
-253.806
-253.502
-253.097
-252.579
-251.937
-251.158
-250.232
-249.147
-247.895
-246.464
-244.847
-243.035
-241.02
-238.796
-236.356
-233.697
-230.813
-227.704
-224.365
-220.798
-217.004
-212.982
-208.738
-204.274
-199.596
-194.711
-189.625
-184.346
-178.884
-173.248
-167.449
-161.498
-155.408
-149.19
-142.859
-136.428
-129.911
-123.323
-116.677
-109.99
-103.275
-96.547
-89.822
-83.113
-76.435
-69.801
-63.224
-56.718
-50.295
-43.965
-37.74
-31.629
-25.64
-19.783
-14.064
-8.488
-3.062
2.211
7.328
12.286
17.083
21.719
26.194
30.509
34.665
38.665
42.511
46.207
49.756
53.163
56.432
59.567
62.575
65.459
68.225
70.878
73.424
75.867
78.213
80.467
82.634
84.717
86.722
88.652
90.511
92.302
94.028
95.691
97.293
98.838
100.325
101.756
103.133
104.455
105.724
106.94
108.102
109.211
110.266
111.268
112.216
113.11
113.951
114.739
115.473
116.156
116.788
117.37
117.904
118.391
118.832
119.232
119.59
119.912
120.198
120.454
120.681
120.884
121.067
121.233
121.386
121.531
121.67
121.809
121.952
122.1
122.26
122.434
122.625
122.837
123.073
123.335
123.625
123.946
124.299
124.684
125.102
125.552
126.035
126.548
127.091
127.66
128.255
128.871
129.504
130.152
130.81
131.472
132.134
132.79
133.435
134.062
134.667
135.243
135.784
136.284
136.737
137.139
137.483
137.763
137.975
138.113
138.172
138.148
138.036
137.834
137.537
137.142
136.648
136.052
135.352
134.548
133.64
132.626
131.508
130.287
128.963
127.54
126.019
124.403
122.697
120.904
119.029
117.075
115.049
112.954
110.797
108.583
106.316
104.004
101.651
99.264
96.848
94.409
91.953
89.487
87.016
84.545
82.08
79.627
77.191
74.776
72.387
70.029
67.707
65.424
63.184
60.99
58.846
56.754
54.716
52.734
50.809
48.942
47.132
45.381
43.687
42.05
40.468
38.942
37.468
36.045
34.671
33.344
32.06
30.818
29.613
28.444
27.306
26.197
25.112
24.049
23.004
21.973
20.954
19.942
18.934
17.926
16.916
15.9
14.875
13.839
12.789
11.723
10.64
9.539
8.419
7.279
6.119
4.939
3.741
2.523
1.288
0.037
-1.229
-2.508
-3.8
-5.1
-6.409
-7.723
-9.039
-10.357
-11.674
-12.988
-14.296
-15.597
-16.888
-18.169
-19.437
-20.69
-21.928
-23.148
-24.35
-25.534
-26.697
-27.842
-28.966
-30.071
-31.159
-32.229
-33.285
-34.329
-35.361
-36.386
-37.405
-38.422
-39.44
-40.461
-41.489
-42.526
-43.576
-44.642
-45.728
-46.836
-47.969
-49.13
-50.32
-51.543
-52.798
-54.088
-55.414
-56.774
-58.172
-59.606
-61.076
-62.583
-64.125
-65.703
-67.315
-68.959
-70.632
-72.332
-74.055
-75.796
-77.55
-79.31
-81.07
-82.822
-84.562
-86.282
-87.976
-89.636
-91.257
-92.831
-94.353
-95.815
-97.21
-98.526
-99.756
-100.895
-101.94
-102.891
-103.748
-104.504
-105.157
-105.705
-106.141
-106.462
-106.651
-106.686
-106.549
-106.232
-105.733
-105.063
-104.227
-103.219
-102.04
-100.694
-99.196
-97.569
-95.831
-93.993
-92.083
-90.146
-88.257
-86.521
-85.02
-83.816
-82.948
-82.423
-82.278
-82.569
-83.319
-84.532
-86.181
-88.187
-90.534
-93.265
-96.298
-99.476
-102.556
-105.142
-106.997
-108.083
-108.286
-107.471
-105.666
-102.942
-99.613
-96.414
-93.94
-92.37
-91.79
-92.33
-93.114
-93.337
-93.136
-91.182
-87.878
-84.326
-77.515
-66.583
-51.102
-29.413
-6.335
14.927
34.604
49.22
57.492
55.454
34.067
-10.256
-77.11
-162.877
-259.313
-358.575
-454.172
-537.358
-598.618
-633.349
-640.412
-623.823
-591.874
-548.142
-494.978
-435.934
-375.453
-321.633
-280.501
-252.213
-231.876
-212.885
-191.54
-168.508
-147.666
-131.993
-121.94
-115.893
-111.154
-106.114
-100.219
-93.488
-86.368
-79.06
-71.664
-64.551
-58.045
-52.484
-48.314
-45.645
-44.386
-44.41
-45.426
-47.13
-49.283
-51.589
-53.733
-55.533
-56.889
-57.761
-58.202
-58.258
-57.956
-57.352
-56.499
-55.431
-54.175
-52.761
-51.221
-49.591
-47.908
-46.194
-44.451
-42.694
-40.935
-39.181
-37.43
-35.668
-33.885
-32.082
-30.279
-28.507
-26.789
-25.132
-23.533
-21.994
-20.52
-19.133
-17.858
-16.704
-15.677
-14.782
-14.024
-13.415
-12.956
-12.631
-12.408
-12.248
-12.12
-12.006
-11.894
-11.774
-11.632
-11.449
-11.208
-10.905
-10.536
-10.096
-9.58
-8.982
-8.3
-7.544
-6.731
-5.882
-5.01
-4.124
-3.229
-2.328
-1.427
-0.527
0.37
1.269
2.172
3.082
3.998
4.918
5.842
6.773
7.715
8.671
9.644
10.634
11.64
12.66
13.694
14.737
15.785
16.831
17.87
18.896
19.904
20.89
21.849
22.776
23.666
24.514
25.315
26.064
26.756
27.385
27.947
28.435
28.846
29.175
29.419
29.573
29.634
29.601
29.47
29.24
28.91
28.479
27.95
27.321
26.597
25.778
24.87
23.876
22.803
21.655
20.439
19.162
17.831
16.454
15.04
13.595
12.129
10.649
9.165
7.684
6.215
4.765
3.344
1.958
0.616
-0.677
-1.914
-3.088
-4.195
-5.23
-6.187
-7.064
-7.858
-8.566
-9.186
-9.718
-10.16
-10.514
-10.779
-10.959
-11.053
-11.066
-11.001
-10.86
-10.648
-10.368
-10.026
-9.627
-9.173
-8.672
-8.126
-7.541
-6.922
-6.272
-5.596
-4.898
-4.18
-3.446
-2.699
-1.941
-1.174
-0.398
0.384
1.172
1.966
2.766
3.572
4.385
5.207
6.038
6.88
7.736
8.606
9.493
10.4
11.329
12.281
13.259
14.265
15.302
16.37
17.472
18.609
19.78
20.988
22.232
23.512
24.826
26.173
27.552
28.959
30.393
31.85
33.326
34.817
36.318
37.825
39.332
40.834
42.326
43.802
45.256
46.682
48.075
49.428
50.737
51.994
53.197
54.338
55.415
56.421
57.354
58.21
58.985
59.677
60.284
60.804
61.236
61.58
61.837
62.007
62.092
62.094
62.017
61.864
61.638
61.345
60.989
60.576
60.111
59.601
59.053
58.472
57.865
57.24
56.603
55.96
55.318
54.684
54.063
53.461
52.883
52.336
51.823
51.35
50.92
50.537
50.205
49.926
49.702
49.534
49.423
49.37
49.375
49.435
49.551
49.719
49.938
50.204
50.513
50.862
51.246
51.66
52.098
52.555
53.027
53.506
53.988
54.467
54.937
55.393
55.831
56.243
56.627
56.977
57.289
57.559
57.784
57.959
58.082
58.151
58.163
58.116
58.009
57.842
57.612
57.322
56.97
56.558
56.087
55.558
54.975
54.339
53.654
52.923
52.15
51.338
50.493
49.617
48.716
47.794
46.855
45.904
44.944
43.98
43.015
42.054
41.101
40.158
39.228
38.315
37.421
36.549
35.701
34.879
34.084
33.319
32.584
31.881
31.211
30.574
29.97
29.399
28.861
28.355
27.88
27.435
27.018
26.629
26.264
25.922
25.6
25.297
25.01
24.737
24.475
24.222
23.976
23.734
23.495
23.256
23.016
22.773
22.526
22.272
22.011
21.742
21.461
21.17
20.865
20.547
20.214
19.865
19.499
19.115
18.713
18.293
17.853
17.393
16.914
16.414
15.895
15.355
14.796
14.218
13.622
13.009
12.378
11.732
11.072
10.397
9.709
9.01
8.3
7.581
6.854
6.12
5.381
4.64
3.896
3.154
2.414
1.679
0.951
0.234
-0.471
-1.16
-1.83
-2.478
-3.1
-3.693
-4.253
-4.777
-5.261
-5.701
-6.095
-6.438
-6.728
-6.961
-7.135
-7.246
-7.291
-7.269
-7.176
-7.011
-6.773
-6.459
-6.068
-5.6
-5.054
-4.43
-3.729
-2.951
-2.097
-1.168
-0.168
0.903
2.039
3.239
4.499
5.813
7.178
8.588
10.037
11.52
13.03
14.562
16.107
17.659
19.211
20.756
22.287
23.795
25.275
26.719
28.12
29.472
30.768
32.001
33.167
34.258
35.271
36.199
37.038
37.785
38.434
38.985
39.433
39.777
40.015
40.146
40.169
40.085
39.892
39.593
39.187
38.677
38.065
37.354
36.548
35.653
34.674
33.618
32.493
31.306
30.064
28.775
27.446
26.085
24.699
23.295
21.882
20.467
19.06
17.673
16.316
14.998
13.725
12.499
11.326
10.211
9.164
8.189
7.297
6.498
5.808
5.255
4.86
4.639
4.601
4.742
5.062
5.563
6.253
7.137
8.211
9.459
10.866
12.423
14.111
15.896
17.719
19.487
21.121
22.557
23.755
24.705
25.385
25.751
25.758
25.376
24.614
23.531
22.158
20.469
18.51
16.395
14.376
12.855
12.079
12.101
12.977
14.767
17.479
21.091
25.236
29.144
32.358
34.783
36.442
37.511
38.112
38.36
39.046
41.537
46.787
55.387
67.655
83.541
103.106
125.293
147.144
165.627
178.58
186.479
191.7
193.763
189.147
171.44
133.736
74.867
-2.613
-93.638
-189.185
-281.126
-359.376
-412.095
-435.048
-428.594
-398.82
-357.057
-308.694
-256.651
-203.78
-152.45
-108.83
-78.099
-60.562
-52.071
-46.444
-39.672
-31.302
-23.782
-19.077
-16.727
-14.943
-11.68
-6.113
1.301
9.778
18.555
27.121
34.93
41.298
45.876
48.636
49.772
49.646
48.55
46.716
44.498
42.304
40.433
39.065
38.25
37.949
38.145
38.838
39.996
41.563
43.469
45.645
48.035
50.599
53.293
56.053
58.803
61.454
63.926
66.162
68.131
69.813
71.199
72.287
73.085
73.614
73.907
73.997
73.914
73.684
73.333
72.889
72.389
71.868
71.364
70.902
70.499
70.169
69.921
69.763
69.697
69.722
69.83
70.019
70.285
70.629
71.05
71.546
72.113
72.748
73.445
74.203
75.017
75.884
76.801
77.765
78.774
79.824
80.915
82.041
83.2
84.385
85.592
86.815
88.048
89.285
90.52
91.748
92.964
94.162
95.339
96.488
97.606
98.688
99.73
100.728
101.676
102.571
103.41
104.188
104.901
105.547
106.121
106.62
107.042
107.384
107.642
107.814
107.898
107.892
107.795
107.605
107.321
106.943
106.471
105.904
105.244
104.49
103.643
102.705
101.676
100.557
99.351
98.059
96.682
95.224
93.686
92.071
90.384
88.626
86.801
84.914
82.968
80.967
78.916
76.819
74.68
72.504
70.296
68.061
65.804
63.528
61.237
58.937
56.631
54.323
52.015
49.71
47.413
45.126
42.85
40.59
38.346
36.121
33.917
31.736
29.577
27.444
25.335
23.253
21.197
19.167
17.163
15.187
13.236
11.311
9.412
7.538
5.689
3.863
2.061
0.282
-1.475
-3.209
-4.92
-6.608
-8.272
-9.911
-11.525
-13.111
-14.668
-16.195
-17.69
-19.15
-20.574
-21.96
-23.305
-24.607
-25.862
-27.069
-28.224
-29.325
-30.367
-31.349
-32.267
-33.118
-33.9
-34.608
-35.241
-35.796
-36.271
-36.662
-36.967
-37.185
-37.314
-37.352
-37.299
-37.154
-36.917
-36.588
-36.169
-35.659
-35.061
-34.375
-33.604
-32.751
-31.816
-30.803
-29.715
-28.555
-27.327
-26.034
-24.681
-23.271
-21.809
-20.3
-18.749
-17.16
-15.539
-13.891
-12.22
-10.533
-8.835
-7.132
-5.428
-3.73
-2.043
-0.372
1.278
2.903
4.497
6.057
7.579
9.058
10.491
11.874
13.204
14.479
15.694
16.847
17.936
18.959
19.913
20.797
21.609
22.349
23.015
23.606
24.124
24.567
24.936
25.231
25.453
25.603
25.684
25.696
25.641
25.522
25.341
25.1
24.801
24.447
24.04
23.583
23.078
22.527
21.934
21.3
20.628
19.921
19.181
18.412
17.614
16.792
15.947
15.082
14.199
13.299
12.386
11.46
10.524
9.579
8.627
7.67
6.707
5.741
4.772
3.8
2.827
1.853
0.878
-0.097
-1.071
-2.045
-3.017
-3.986
-4.952
-5.914
-6.87
-7.821
-8.765
-9.701
-10.627
-11.543
-12.448
-13.339
-14.216
-15.077
-15.921
-16.746
-17.551
-18.333
-19.093
-19.827
-20.535
-21.215
-21.865
-22.483
-23.068
-23.618
-24.132
-24.608
-25.045
-25.442
-25.799
-26.114
-26.387
-26.618
-26.808
-26.956
-27.064
-27.131
-27.16
-27.152
-27.107
-27.029
-26.919
-26.779
-26.612
-26.42
-26.205
-25.97
-25.719
-25.453
-25.175
-24.889
-24.596
-24.301
-24.005
-23.711
-23.423
-23.143
-22.872
-22.615
-22.372
-22.146
-21.938
-21.749
-21.582
-21.438
-21.316
-21.217
-21.143
-21.092
-21.065
-21.062
-21.08
-21.12
-21.18
-21.259
-21.356
-21.469
-21.595
-21.735
-21.885
-22.045
-22.212
-22.385
-22.562
-22.741
-22.92
-23.098
-23.273
-23.444
-23.609
-23.767
-23.918
-24.059
-24.191
-24.312
-24.421
-24.519
-24.603
-24.675
-24.734
-24.779
-24.811
-24.83
-24.837
-24.83
-24.812
-24.782
-24.741
-24.69
-24.628
-24.557
-24.476
-24.387
-24.289
-24.183
-24.07
-23.948
-23.819
-23.682
-23.537
-23.383
-23.22
-23.048
-22.866
-22.673
-22.469
-22.254
-22.025
-21.784
-21.529
-21.259
-20.973
-20.672
-20.353
-20.017
-19.662
-19.289
-18.895
-18.48
-18.045
-17.587
-17.107
-16.603
-16.075
-15.523
-14.946
-14.344
-13.718
-13.066
-12.39
-11.69
-10.967
-10.221
-9.454
-8.665
-7.857
-7.03
-6.186
-5.325
-4.449
-3.56
-2.659
-1.748
-0.827
0.101
1.035
1.974
2.915
3.858
4.8
5.74
6.675
7.602
8.52
9.424
10.313
11.182
12.03
12.852
13.646
14.408
15.137
15.828
16.48
17.087
17.649
18.16
18.618
19.019
19.361
19.639
19.852
19.995
20.064
20.058
19.972
19.802
19.545
19.197
18.752
18.207
17.56
16.808
15.947
14.977
13.897
12.706
11.407
10
8.487
6.869
5.149
3.329
1.412
-0.598
-2.697
-4.882
-7.147
-9.486
-11.891
-14.35
-16.855
-19.397
-21.967
-24.558
-27.157
-29.75
-32.325
-34.866
-37.359
-39.785
-42.12
-44.339
-46.419
-48.342
-50.096
-51.677
-53.085
-54.315
-55.361
-56.221
-56.899
-57.409
-57.763
-57.971
-58.043
-58
-57.879
-57.74
-57.636
-57.607
-57.679
-57.842
-58.094
-58.443
-58.901
-59.483
-60.193
-60.99
-61.858
-62.824
-63.856
-64.878
-65.7
-65.978
-65.423
-63.839
-61.028
-56.914
-51.597
-45.259
-38.403
-31.821
-26.212
-22.256
-20.529
-21.135
-23.877
-28.293
-33.29
-37.461
-39.352
-37.312
-30.056
-16.901
2.51
27.876
57.887
90.009
120.536
145.574
162.212
170.087
170.03
162.256
145.943
116.128
67.722
-2.446
-95.94
-204.712
-316.183
-415.23
-483.518
-514.356
-510.498
-479.967
-437.953
-392.895
-345.022
-295.166
-243.356
-192.729
-151.889
-124.745
-109.323
-102.298
-97.8
-92.944
-89.479
-88.152
-88.985
-90.783
-90.939
-88.386
-83.316
-76.308
-68.392
-60.284
-52.628
-46.307
-41.822
-39.295
-38.609
-39.379
-41.252
-43.941
-47.041
-50.076
-52.699
-54.706
-56.027
-56.711
-56.781
-56.24
-55.131
-53.519
-51.482
-49.098
-46.429
-43.521
-40.427
-37.219
-33.984
-30.816
-27.802
-25.005
-22.46
-20.19
-18.211
-16.529
-15.141
-14.032
-13.172
-12.532
-12.084
-11.803
-11.664
-11.638
-11.69
-11.785
-11.888
-11.975
-12.03
-12.042
-12.004
-11.907
-11.751
-11.536
-11.268
-10.949
-10.582
-10.164
-9.694
-9.172
-8.601
-7.98
-7.311
-6.593
-5.825
-5.008
-4.14
-3.22
-2.248
-1.221
-0.14
0.997
2.187
3.429
4.721
6.059
7.441
8.864
10.322
11.813
13.334
14.879
16.447
18.033
19.633
21.243
22.859
24.477
26.093
27.7
29.296
30.873
32.427
33.952
35.443
36.893
38.296
39.646
40.939
42.167
43.326
44.411
45.416
46.336
47.168
47.908
48.552
49.097
49.54
49.879
50.113
50.24
50.259
50.169
49.971
49.663
49.248
48.725
48.097
47.364
46.531
45.599
44.573
43.457
42.256
40.975
39.62
38.197
36.714
35.178
33.594
31.972
30.319
28.643
26.952
25.253
23.554
21.864
20.189
18.537
16.914
15.328
13.783
12.288
10.846
9.463
8.144
6.893
5.715
4.613
3.59
2.649
1.791
1.019
0.333
-0.266
-0.78
-1.207
-1.551
-1.811
-1.992
-2.094
-2.121
-2.077
-1.964
-1.787
-1.55
-1.257
-0.912
-0.521
-0.086
0.388
0.896
1.435
2.001
2.59
3.198
3.822
4.458
5.103
5.754
6.408
7.062
7.716
8.366
9.011
9.651
10.284
10.91
11.528
12.138
12.742
13.339
13.93
14.516
15.098
15.679
16.258
16.839
17.423
18.011
18.606
19.207
19.818
20.438
21.069
21.713
22.37
23.041
23.727
24.428
25.145
25.878
26.627
27.392
28.171
28.965
29.773
30.592
31.421
32.26
33.105
33.954
34.806
35.657
36.505
37.347
38.18
39.001
39.805
40.591
41.355
42.094
42.805
43.485
44.131
44.742
45.315
45.847
46.337
46.784
47.184
47.539
47.845
48.103
48.312
48.473
48.585
48.648
48.665
48.636
48.562
48.445
48.288
48.093
47.863
47.601
47.309
46.992
46.654
46.298
45.929
45.551
45.168
44.784
44.403
44.03
43.67
43.325
42.999
42.698
42.423
42.178
41.968
41.793
41.658
41.564
41.513
41.507
41.547
41.635
41.77
41.953
42.185
42.463
42.788
43.157
43.57
44.024
44.517
45.045
45.607
46.197
46.814
47.452
48.108
48.778
49.457
50.141
50.825
51.505
52.176
52.835
53.477
54.097
54.692
55.257
55.79
56.287
56.744
57.159
57.53
57.853
58.127
58.351
58.523
58.643
58.711
58.726
58.689
58.601
58.464
58.278
58.045
57.769
57.451
57.095
56.703
56.279
55.827
55.351
54.854
54.34
53.813
53.278
52.737
52.196
51.657
51.125
50.603
50.095
49.605
49.134
48.686
48.265
47.871
47.506
47.173
46.873
46.605
46.371
46.17
46.002
45.867
45.763
45.69
45.644
45.624
45.627
45.651
45.691
45.746
45.811
45.883
45.958
46.033
46.103
46.166
46.217
46.253
46.27
46.265
46.234
46.174
46.083
45.957
45.795
45.593
45.352
45.069
44.743
44.375
43.965
43.511
43.017
42.482
41.908
41.298
40.654
39.978
39.275
38.549
37.803
37.042
36.27
35.493
34.714
33.939
33.172
32.418
31.683
30.97
30.286
29.634
29.018
28.444
27.915
27.434
27.005
26.629
26.31
26.047
25.843
25.698
25.613
25.586
25.617
25.704
25.846
26.041
26.284
26.572
26.9
27.263
27.657
28.075
28.511
28.958
29.411
29.861
30.302
30.728
31.129
31.499
31.83
32.113
32.341
32.507
32.603
32.623
32.56
32.409
32.164
31.821
31.376
30.825
30.164
29.389
28.497
27.486
26.354
25.098
23.721
22.22
20.6
18.864
17.015
15.06
13.003
10.85
8.608
6.284
3.886
1.424
-1.092
-3.652
-6.244
-8.858
-11.482
-14.103
-16.712
-19.299
-21.859
-24.389
-26.88
-29.32
-31.699
-34.005
-36.228
-38.356
-40.373
-42.254
-43.972
-45.506
-46.838
-47.955
-48.841
-49.477
-49.844
-49.925
-49.723
-49.256
-48.544
-47.606
-46.457
-45.109
-43.618
-42.074
-40.576
-39.229
-38.117
-37.288
-36.813
-36.796
-37.275
-38.241
-39.578
-41.039
-42.5
-43.98
-45.486
-47.031
-48.618
-50.165
-51.781
-53.828
-56.338
-59.005
-61.418
-62.983
-63.258
-62.155
-59.4
-54.42
-47.099
-37.746
-26.868
-15.29
-3.499
8.694
21.406
34.426
47.732
61.556
76.207
92
108.605
124.002
135.04
139.117
134.522
121.674
103.368
81.721
55.671
20.207
-32.242
-108.402
-207.275
-317.405
-422.435
-504.01
-549.319
-558.007
-535.399
-490.173
-432.847
-369.171
-303.84
-243.572
-194.054
-159.825
-143.149
-141.04
-144.909
-146.528
-140.628
-124.582
-103.464
-84.368
-70.585
-64.813
-65.007
-66.222
-66.625
-64.924
-60.972
-56.619
-52.669
-49.372
-47.318
-46.46
-46.573
-47.693
-49.636
-52.091
-54.854
-57.625
-59.999
-61.749
-62.783
-63.046
-62.604
-61.543
-59.899
-57.755
-55.223
-52.391
-49.35
-46.169
-42.899
-39.618
-36.415
-33.376
-30.571
-28.041
-25.804
-23.871
-22.24
-20.897
-19.82
-18.974
-18.323
-17.839
-17.491
-17.254
-17.099
-16.993
-16.901
-16.792
-16.639
-16.428
-16.148
-15.792
-15.36
-14.854
-14.279
-13.644
-12.959
-12.228
-11.456
-10.646
-9.803
-8.934
-8.046
-7.143
-6.232
-5.318
-4.404
-3.495
-2.593
-1.702
-0.823
0.041
0.89
1.72
2.528
3.312
4.07
4.799
5.498
6.167
6.803
7.409
7.983
8.529
9.047
9.538
10.006
10.452
10.88
11.291
11.69
12.08
12.463
12.844
13.225
13.611
14.003
14.406
14.822
15.253
15.703
16.173
16.665
17.181
17.722
18.289
18.884
19.505
20.152
20.825
21.523
22.245
22.988
23.749
24.528
25.32
26.122
26.932
27.746
28.56
29.371
30.174
30.967
31.746
32.507
33.248
33.965
34.656
35.318
35.95
36.549
37.114
37.644
38.138
38.596
39.016
39.4
39.748
40.059
40.336
40.578
40.789
40.968
41.118
41.241
41.337
41.41
41.46
41.49
41.501
41.496
41.476
41.442
41.396
41.34
41.273
41.198
41.114
41.021
40.921
40.811
40.693
40.564
40.424
40.272
40.107
39.927
39.729
39.513
39.276
39.016
38.732
38.421
38.082
37.713
37.313
36.88
36.414
35.914
35.378
34.808
34.203
33.563
32.889
32.182
31.442
30.671
29.87
29.043
28.19
27.315
26.419
25.507
24.581
23.643
22.698
21.749
20.798
19.851
18.909
17.978
17.059
16.157
15.275
14.415
13.58
12.772
11.992
11.243
10.526
9.84
9.187
8.567
7.979
7.424
6.9
6.407
5.944
5.509
5.1
4.716
4.356
4.017
3.698
3.396
3.11
2.838
2.579
2.331
2.091
1.86
1.634
1.413
1.195
0.98
0.767
0.556
0.347
0.139
-0.065
-0.266
-0.462
-0.65
-0.831
-1.001
-1.159
-1.303
-1.43
-1.538
-1.625
-1.688
-1.726
-1.737
-1.719
-1.671
-1.591
-1.48
-1.336
-1.16
-0.951
-0.71
-0.438
-0.136
0.195
0.554
0.939
1.347
1.775
2.222
2.683
3.155
3.633
4.115
4.594
5.066
5.527
5.971
6.394
6.79
7.154
7.481
7.766
8.005
8.192
8.325
8.4
8.412
8.361
8.242
8.054
7.796
7.467
7.065
6.59
6.043
5.423
4.732
3.969
3.137
2.238
1.273
0.245
-0.843
-1.988
-3.186
-4.434
-5.728
-7.062
-8.433
-9.836
-11.265
-12.717
-14.184
-15.663
-17.148
-18.634
-20.116
-21.589
-23.047
-24.487
-25.904
-27.294
-28.651
-29.972
-31.252
-32.487
-33.673
-34.806
-35.881
-36.895
-37.844
-38.722
-39.527
-40.255
-40.902
-41.464
-41.938
-42.321
-42.609
-42.8
-42.892
-42.882
-42.768
-42.549
-42.222
-41.787
-41.243
-40.588
-39.823
-38.948
-37.963
-36.868
-35.666
-34.357
-32.944
-31.429
-29.816
-28.107
-26.307
-24.421
-22.454
-20.413
-18.305
-16.136
-13.915
-11.651
-9.353
-7.029
-4.69
-2.345
-0.006
2.319
4.618
6.881
9.096
11.253
13.342
15.351
17.269
19.088
20.796
22.384
23.842
25.163
26.338
27.358
28.217
28.908
29.424
29.76
29.912
29.875
29.649
29.23
28.62
27.819
26.832
25.663
24.316
22.8
21.121
19.287
17.308
15.192
12.95
10.592
8.13
5.576
2.945
0.252
-2.483
-5.245
-8.016
-10.784
-13.534
-16.248
-18.91
-21.503
-24.009
-26.41
-28.682
-30.795
-32.722
-34.436
-35.918
-37.159
-38.153
-38.898
-39.393
-39.629
-39.606
-39.336
-38.834
-38.112
-37.191
-36.087
-34.839
-33.521
-32.203
-30.953
-29.826
-28.843
-28.025
-27.401
-26.993
-26.844
-26.978
-27.372
-28.03
-28.97
-30.151
-31.499
-32.832
-33.795
-34.08
-33.434
-31.587
-28.413
-23.961
-18.399
-12.212
-6.124
-0.786
3.115
4.969
4.612
2.236
-1.643
-5.929
-9.314
-10.47
-7.763
0.211
14.049
33.851
59.197
88.776
120.948
152.814
179.719
197.529
203.753
198.713
185.441
166.076
138.876
98.028
36.073
-52.391
-164.898
-289.332
-409.01
-504.983
-564.379
-587.475
-580.338
-554.248
-519.369
-475.591
-422.67
-361.371
-295.223
-236.114
-192.363
-166.215
-154.746
-147.952
-139.09
-126.382
-110.97
-97.578
-88.152
-81.615
-76.37
-69.984
-61.652
-52.174
-42.222
-32.404
-23.218
-14.891
-7.79
-2.445
1
2.718
2.946
1.998
0.176
-2.298
-5.137
-7.962
-10.536
-12.741
-14.508
-15.86
-16.814
-17.346
-17.463
-17.212
-16.638
-15.803
-14.775
-13.593
-12.303
-10.961
-9.615
-8.316
-7.114
-6.031
-5.078
-4.265
-3.6
-3.102
-2.809
-2.733
-2.867
-3.196
-3.688
-4.32
-5.08
-5.944
-6.888
-7.89
-8.93
-10.005
-11.129
-12.3
-13.508
-14.727
-15.914
-17.038
-18.085
-19.04
-19.893
-20.633
-21.249
-21.736
-22.101
-22.344
-22.461
-22.44
-22.26
-21.911
-21.39
-20.703
-19.865
-18.885
-17.769
-16.523
-15.157
-13.677
-12.091
-10.399
-8.596
-6.682
-4.659
-2.533
-0.312
1.997
4.391
6.866
9.42
12.048
14.746
17.51
20.34
23.229
26.173
29.164
32.194
35.253
38.334
41.428
44.527
47.622
50.703
53.763
56.793
59.785
62.731
65.621
68.447
71.199
73.87
76.451
78.934
81.31
83.573
85.715
87.73
89.611
91.353
92.951
94.398
95.692
96.829
97.805
98.619
99.267
99.751
100.068
100.221
100.21
100.038
99.707
99.222
98.586
97.805
96.884
95.83
94.649
93.349
91.937
90.422
88.812
87.114
85.34
83.496
81.593
79.64
77.645
75.617
73.566
71.5
69.428
67.358
65.297
63.255
61.237
59.252
57.307
55.407
53.558
51.767
50.039
48.377
46.787
45.272
43.835
42.478
41.205
40.015
38.912
37.894
36.963
36.119
35.36
34.687
34.098
33.593
33.17
32.828
32.565
32.38
32.271
32.235
32.272
32.379
32.553
32.794
33.098
33.463
33.886
34.367
34.9
35.485
36.119
36.798
37.52
38.282
39.082
39.917
40.785
41.683
42.609
43.56
44.535
45.53
46.545
47.576
48.62
49.676
50.739
51.809
52.881
53.953
55.021
56.082
57.134
58.172
59.194
60.197
61.176
62.129
63.053
63.944
64.8
65.618
66.396
67.13
67.818
68.458
69.049
69.587
70.07
70.497
70.866
71.174
71.42
71.603
71.722
71.774
71.76
71.679
71.531
71.316
71.034
70.686
70.274
69.798
69.26
68.663
68.009
67.299
66.538
65.728
64.872
63.974
63.036
62.063
61.059
60.026
58.97
57.893
56.8
55.695
54.583
53.468
52.354
51.246
50.149
49.067
48.005
46.966
45.955
44.975
44.031
43.125
42.26
41.44
40.665
39.938
39.26
38.632
38.055
37.528
37.05
36.622
36.241
35.905
35.614
35.364
35.152
34.976
34.832
34.716
34.623
34.551
34.493
34.444
34.4
34.355
34.302
34.237
34.153
34.045
33.906
33.731
33.516
33.254
32.941
32.573
32.145
31.654
31.098
30.473
29.778
29.011
28.172
27.261
26.278
25.224
24.1
22.91
21.655
20.339
18.965
17.538
16.062
14.543
12.987
11.399
9.787
8.157
6.516
4.872
3.233
1.606
-0.001
-1.581
-3.125
-4.628
-6.081
-7.478
-8.814
-10.081
-11.275
-12.39
-13.424
-14.372
-15.231
-16
-16.676
-17.259
-17.749
-18.145
-18.449
-18.662
-18.787
-18.827
-18.784
-18.664
-18.47
-18.208
-17.885
-17.505
-17.077
-16.607
-16.103
-15.573
-15.023
-14.464
-13.901
-13.344
-12.8
-12.277
-11.782
-11.323
-10.905
-10.536
-10.221
-9.965
-9.772
-9.647
-9.593
-9.613
-9.709
-9.883
-10.135
-10.466
-10.876
-11.363
-11.927
-12.564
-13.272
-14.047
-14.884
-15.779
-16.725
-17.717
-18.747
-19.808
-20.893
-21.993
-23.1
-24.207
-25.303
-26.38
-27.43
-28.444
-29.413
-30.33
-31.186
-31.975
-32.69
-33.324
-33.871
-34.326
-34.684
-34.941
-35.093
-35.136
-35.068
-34.887
-34.591
-34.181
-33.656
-33.018
-32.268
-31.409
-30.445
-29.378
-28.213
-26.957
-25.616
-24.195
-22.704
-21.149
-19.539
-17.884
-16.192
-14.474
-12.737
-10.992
-9.249
-7.515
-5.8
-4.112
-2.46
-0.853
0.703
2.199
3.628
4.982
6.257
7.445
8.541
9.539
10.437
11.228
11.911
12.482
12.939
13.278
13.498
13.6
13.581
13.444
13.189
12.82
12.341
11.756
11.073
10.296
9.431
8.485
7.464
6.374
5.221
4.008
2.745
1.436
0.091
-1.28
-2.667
-4.063
-5.46
-6.854
-8.24
-9.611
-10.962
-12.285
-13.569
-14.804
-15.97
-17.043
-18.007
-18.846
-19.547
-20.107
-20.519
-20.781
-20.891
-20.843
-20.634
-20.267
-19.748
-19.089
-18.313
-17.449
-16.544
-15.659
-14.853
-14.176
-13.668
-13.359
-13.286
-13.489
-14.002
-14.865
-16.101
-17.721
-19.747
-22.136
-24.778
-27.53
-30.165
-32.443
-34.186
-35.233
-35.425
-34.815
-33.575
-31.902
-30.16
-28.626
-27.457
-26.843
-26.881
-27.313
-27.669
-27.498
-26.206
-23.358
-18.563
-11.224
-0.893
12.479
28.485
46.608
66.417
87.32
108.158
127.319
142.24
150.318
150.636
141.729
123.178
96.206
59.958
14.802
-39.257
-105.406
-183.906
-271.343
-360.981
-439.383
-493.187
-517.085
-511.127
-482.357
-441.267
-392.104
-337.523
-280.521
-224.254
-175.74
-140.587
-119.064
-107.1
-98.71
-89.805
-80.1
-72.457
-68.965
-69.329
-71.729
-73.393
-72.881
-70.374
-66.365
-61.472
-56.167
-50.779
-45.852
-42.041
-39.617
-38.484
-38.431
-39.14
-40.303
-41.679
-42.956
-43.777
-43.965
-43.476
-42.327
-40.618
-38.437
-35.839
-32.926
-29.81
-26.579
-23.323
-20.111
-17.001
-14.076
-11.407
-9.038
-7.006
-5.325
-3.991
-3.003
-2.347
-1.988
-1.898
-2.038
-2.371
-2.868
-3.489
-4.191
-4.934
-5.67
-6.362
-6.986
-7.516
-7.936
-8.233
-8.396
-8.42
-8.306
-8.053
-7.658
-7.118
-6.43
-5.593
-4.607
-3.477
-2.204
-0.792
0.757
2.439
4.25
6.186
8.241
10.412
12.693
15.078
17.558
20.124
22.765
25.47
28.23
31.031
33.863
36.714
39.572
42.428
45.27
48.089
50.874
53.615
56.303
58.93
61.486
63.963
66.355
68.655
70.855
72.952
74.94
76.815
78.574
80.214
81.733
83.129
84.402
85.553
86.581
87.489
88.279
88.955
89.518
89.974
90.328
90.583
90.746
90.821
90.814
90.731
90.578
90.36
90.083
89.752
89.375
88.955
88.498
88.011
87.497
86.961
86.409
85.843
85.269
84.69
84.109
83.529
82.953
82.382
81.818
81.263
80.716
80.177
79.647
79.123
78.604
78.088
77.572
77.054
76.53
75.997
75.451
74.888
74.303
73.692
73.051
72.374
71.659
70.9
70.092
69.233
68.319
67.345
66.308
65.206
64.035
62.794
61.48
60.092
58.63
57.093
55.481
53.796
52.04
50.214
48.322
46.367
44.354
42.289
40.175
38.021
35.833
33.618
31.384
29.139
26.893
24.654
22.432
20.236
18.075
15.959
13.896
11.898
9.972
8.127
6.373
4.717
3.168
1.732
0.417
-0.771
-1.828
-2.748
-3.527
-4.162
-4.652
-4.994
-5.189
-5.236
-5.138
-4.896
-4.515
-3.998
-3.35
-2.579
-1.69
-0.692
0.408
1.599
2.873
4.22
5.629
7.089
8.589
10.119
11.666
13.219
14.767
16.298
17.802
19.267
20.684
22.043
23.334
24.548
25.679
26.717
27.656
28.491
29.217
29.828
30.323
30.697
30.951
31.083
31.094
30.985
30.758
30.416
29.962
29.401
28.736
27.975
27.122
26.184
25.168
24.081
22.932
21.727
20.475
19.183
17.86
16.514
15.152
13.782
12.411
11.046
9.694
8.361
7.054
5.777
4.536
3.335
2.178
1.069
0.011
-0.996
-1.947
-2.844
-3.684
-4.466
-5.192
-5.861
-6.474
-7.033
-7.537
-7.99
-8.394
-8.75
-9.061
-9.329
-9.558
-9.75
-9.908
-10.034
-10.132
-10.203
-10.251
-10.278
-10.287
-10.28
-10.26
-10.228
-10.187
-10.139
-10.086
-10.028
-9.968
-9.907
-9.847
-9.788
-9.732
-9.682
-9.637
-9.601
-9.573
-9.557
-9.554
-9.564
-9.591
-9.635
-9.698
-9.782
-9.889
-10.02
-10.178
-10.364
-10.581
-10.829
-11.111
-11.428
-11.781
-12.173
-12.604
-13.075
-13.587
-14.142
-14.74
-15.381
-16.066
-16.794
-17.566
-18.38
-19.234
-20.129
-21.06
-22.027
-23.026
-24.055
-25.109
-26.187
-27.283
-28.393
-29.515
-30.642
-31.77
-32.896
-34.013
-35.117
-36.203
-37.268
-38.306
-39.313
-40.285
-41.219
-42.112
-42.959
-43.759
-44.508
-45.203
-45.844
-46.429
-46.956
-47.425
-47.835
-48.189
-48.485
-48.727
-48.915
-49.053
-49.142
-49.186
-49.189
-49.153
-49.084
-48.984
-48.859
-48.713
-48.551
-48.377
-48.195
-48.009
-47.825
-47.645
-47.472
-47.31
-47.16
-47.027
-46.91
-46.812
-46.733
-46.676
-46.639
-46.623
-46.627
-46.65
-46.691
-46.747
-46.815
-46.893
-46.976
-47.062
-47.146
-47.224
-47.291
-47.342
-47.371
-47.374
-47.344
-47.276
-47.164
-47.003
-46.787
-46.51
-46.17
-45.76
-45.277
-44.719
-44.081
-43.362
-42.56
-41.673
-40.7
-39.64
-38.495
-37.263
-35.947
-34.547
-33.066
-31.506
-29.871
-28.164
-26.388
-24.548
-22.649
-20.694
-18.691
-16.643
-14.558
-12.441
-10.298
-8.137
-5.965
-3.789
-1.616
0.546
2.691
4.812
6.903
8.957
10.969
12.934
14.846
16.701
18.494
20.221
21.878
23.463
24.973
26.404
27.754
29.022
30.205
31.303
32.314
33.236
34.068
34.809
35.458
36.013
36.474
36.839
37.109
37.283
37.363
37.349
37.243
37.045
36.76
36.389
35.934
35.397
34.78
34.082
33.308
32.46
31.538
30.544
29.479
28.345
27.146
25.886
24.569
23.195
21.765
20.284
18.759
17.2
15.616
14.017
12.415
10.826
9.272
7.773
6.348
5.009
3.762
2.619
1.591
0.691
-0.072
-0.699
-1.202
-1.582
-1.847
-2.013
-2.1
-2.145
-2.197
-2.294
-2.474
-2.769
-3.205
-3.811
-4.606
-5.604
-6.821
-8.255
-9.906
-11.789
-13.886
-16.182
-18.665
-21.235
-23.744
-26.027
-27.823
-28.913
-29.142
-28.293
-26.211
-22.969
-18.741
-13.883
-8.94
-4.259
-0.141
2.963
4.831
5.6
5.646
5.71
6.687
9.173
13.863
21.739
33.436
49.032
68.169
90.12
114.037
139.065
163.122
182.817
195.056
198.049
193.112
182.931
168.8
149.902
120.746
75.276
10.161
-75.769
-176.077
-279.403
-373.505
-443.921
-481.034
-483.41
-453.37
-398.733
-331.7
-261.012
-196.096
-146.709
-114.155
-97.89
-93.617
-91.012
-85.85
-77.453
-66.563
-57.94
-53.037
-49.932
-47.084
-42.479
-35.342
-26.564
-17.017
-7.404
1.552
9.133
14.924
18.798
20.819
21.333
20.713
19.217
17.2
15.112
13.271
11.883
11.056
10.754
10.942
11.628
12.78
14.34
16.251
18.439
20.832
23.383
26.032
28.705
31.33
33.813
36.065
38.028
39.662
40.948
41.882
42.461
42.689
42.589
42.193
41.538
40.664
39.605
38.395
37.072
35.679
34.262
32.867
31.529
30.272
29.117
28.079
27.173
26.41
25.794
25.324
25.003
24.83
24.809
24.944
25.231
25.669
26.251
26.973
27.829
28.813
29.918
31.137
32.46
33.88
35.387
36.972
38.624
40.329
42.075
43.846
45.628
47.407
49.167
50.894
52.572
54.188
55.728
57.181
58.534
59.775
60.894
61.881
62.727
63.425
63.967
64.348
64.563
64.61
64.485
64.189
63.721
63.082
62.275
61.304
60.173
58.887
57.455
55.883
54.18
52.357
50.422
48.387
46.263
44.062
41.795
39.475
37.113
34.719
32.307
29.886
27.467
25.06
22.674
20.318
18
15.728
13.507
11.345
9.245
7.212
5.25
3.36
1.546
-0.192
-1.854
-3.439
-4.949
-6.386
-7.753
-9.052
-10.289
-11.467
-12.592
-13.669
-14.704
-15.704
-16.674
-17.621
-18.552
-19.472
-20.388
-21.305
-22.228
-23.163
-24.114
-25.084
-26.076
-27.094
-28.138
-29.211
-30.312
-31.441
-32.599
-33.784
-34.994
-36.228
-37.483
-38.756
-40.044
-41.342
-42.648
-43.955
-45.259
-46.556
-47.839
-49.103
-50.343
-51.552
-52.724
-53.855
-54.938
-55.967
-56.937
-57.843
-58.681
-59.445
-60.133
-60.742
-61.268
-61.711
-62.069
-62.341
-62.527
-62.629
-62.646
-62.58
-62.434
-62.209
-61.909
-61.536
-61.095
-60.588
-60.021
-59.397
-58.722
-57.999
-57.233
-56.43
-55.595
-54.731
-53.845
-52.942
-52.026
-51.105
-50.182
-49.263
-48.353
-47.457
-46.58
-45.726
-44.898
-44.1
-43.335
-42.607
-41.917
-41.269
-40.663
-40.103
-39.588
-39.12
-38.699
-38.327
-38.002
-37.725
-37.495
-37.313
-37.177
-37.088
-37.045
-37.049
-37.099
-37.196
-37.341
-37.533
-37.772
-38.058
-38.391
-38.769
-39.192
-39.658
-40.165
-40.712
-41.297
-41.921
-42.583
-43.283
-44.02
-44.795
-45.607
-46.459
-47.351
-48.28
-49.247
-50.251
-51.295
-52.385
-53.521
-54.702
-55.923
-57.178
-58.46
-59.758
-61.056
-62.328
-63.551
-64.703
-65.768
-66.735
-67.589
-68.313
-68.885
-69.289
-69.52
-69.582
-69.482
-69.227
-68.831
-68.322
-67.75
-67.177
-66.656
-66.233
-65.94
-65.805
-65.864
-66.149
-66.684
-67.47
-68.482
-69.681
-71.025
-72.463
-73.928
-75.322
-76.508
-77.337
-77.682
-77.425
-76.464
-74.694
-71.99
-68.255
-63.424
-57.474
-50.423
-42.305
-33.165
-23.071
-12.125
-0.475
11.68
24.14
36.723
49.244
61.522
73.357
84.522
94.827
104.135
112.343
119.393
125.237
129.835
133.186
135.328
136.337
136.332
135.428
133.724
131.342
128.411
125.088
121.555
117.959
114.404
110.976
107.737
104.742
102.046
99.673
97.615
95.852
94.347
93.072
92.004
91.106
90.328
89.606
88.865
88.051
87.136
86.098
84.925
83.609
82.14
80.528
78.797
76.97
75.069
73.111
71.111
69.089
67.072
65.087
63.166
61.329
59.585
57.943
56.41
54.986
53.673
52.463
51.346
50.313
49.357
48.472
47.654
46.896
46.189
45.525
44.896
44.297
43.721
43.164
42.621
42.088
41.562
41.042
40.525
40.01
39.494
38.974
38.446
37.909
37.359
36.795
36.214
35.616
34.999
34.363
33.708
33.036
32.346
31.64
30.918
30.183
29.435
28.677
27.91
27.136
26.357
25.574
24.789
24.004
23.219
22.435
21.653
20.875
20.1
19.33
18.565
17.807
17.057
16.316
15.585
14.868
14.164
13.476
12.805
12.154
11.524
10.917
10.335
9.78
9.252
8.755
8.289
7.856
7.457
7.095
6.77
6.484
6.239
6.035
5.876
5.762
5.696
5.68
5.716
5.807
5.955
6.161
6.427
6.754
7.144
7.597
8.114
8.695
9.339
10.046
10.814
11.642
12.529
13.471
14.465
15.51
16.6
17.733
18.904
20.109
21.345
22.607
23.89
25.191
26.504
27.825
29.149
30.469
31.781
33.079
34.357
35.609
36.829
38.011
39.15
40.241
41.276
42.252
43.164
44.005
44.772
45.461
46.065
46.583
47.011
47.346
47.588
47.734
47.783
47.736
47.593
47.356
47.025
46.602
46.088
45.485
44.796
44.023
43.171
42.241
41.237
40.166
39.035
37.852
36.623
35.356
34.053
32.723
31.376
30.023
28.672
27.336
26.025
24.756
23.552
22.434
21.419
20.523
19.753
19.115
18.62
18.274
18.083
18.051
18.171
18.432
18.827
19.34
19.949
20.62
21.298
21.918
22.425
22.768
22.91
22.833
22.505
21.896
20.986
19.748
18.173
16.287
14.088
11.563
8.773
5.833
2.975
0.555
-1.12
-1.815
-1.301
0.58
3.84
8.306
13.495
18.655
23.068
26.112
27.336
26.585
23.973
20.048
15.927
13.09
13.14
17.672
27.817
44.05
66.549
94.777
126.975
160.932
193.165
218.641
234.223
238.073
229.288
211.224
185.127
148.077
97.911
27.857
-66.208
-176.527
-292.132
-395.297
-466.937
-502.832
-505.563
-483.996
-451.614
-412.276
-367.082
-318.196
-267.911
-223.529
-190.551
-168.549
-152.887
-137.035
-117.423
-95.142
-74.099
-57.307
-45.457
-37.412
-31.056
-25.348
-20.129
-15.167
-10.553
-6.331
-2.329
1.347
4.532
7.24
9.287
10.34
10.313
9.247
7.255
4.619
1.596
-1.631
-4.786
-7.542
-9.705
-11.166
-11.906
-12.008
-11.541
-10.565
-9.16
-7.405
-5.379
-3.15
-0.782
1.67
4.14
6.56
8.859
10.976
12.871
14.518
15.921
17.105
18.107
18.978
19.75
20.429
21.028
21.558
22.035
22.486
22.931
23.384
23.866
24.399
25.001
25.688
26.458
27.289
28.161
29.043
29.922
30.811
31.715
32.637
33.58
34.54
35.519
36.524
37.554
38.601
39.655
40.706
41.751
42.799
43.856
44.929
46.017
47.109
48.199
49.279
50.345
51.392
52.413
53.399
54.345
55.254
56.128
56.969
57.777
58.55
59.285
59.982
60.641
61.264
61.852
62.404
62.923
63.407
63.859
64.28
64.67
65.027
65.349
65.634
65.881
66.09
66.259
66.386
66.469
66.508
66.501
66.447
66.345
66.193
65.989
65.731
65.419
65.051
64.625
64.139
63.593
62.985
62.313
61.577
60.776
59.908
58.973
57.972
56.904
55.77
54.57
53.306
51.98
50.593
49.147
47.644
46.088
44.481
42.826
41.126
39.386
37.608
35.795
33.953
32.084
30.192
28.282
26.355
24.417
22.471
20.52
18.568
16.618
14.672
12.735
10.809
8.898
7.003
5.128
3.275
1.447
-0.354
-2.127
-3.868
-5.577
-7.25
-8.887
-10.486
-12.045
-13.562
-15.037
-16.467
-17.852
-19.19
-20.48
-21.722
-22.913
-24.053
-25.141
-26.174
-27.152
-28.073
-28.936
-29.74
-30.482
-31.161
-31.776
-32.325
-32.808
-33.222
-33.567
-33.841
-34.045
-34.177
-34.237
-34.226
-34.142
-33.988
-33.764
-33.47
-33.109
-32.682
-32.191
-31.638
-31.026
-30.358
-29.635
-28.862
-28.043
-27.181
-26.28
-25.344
-24.379
-23.39
-22.381
-21.358
-20.327
-19.293
-18.263
-17.241
-16.234
-15.247
-14.288
-13.36
-12.47
-11.622
-10.822
-10.075
-9.383
-8.752
-8.184
-7.683
-7.251
-6.89
-6.602
-6.389
-6.251
-6.19
-6.205
-6.296
-6.464
-6.705
-7.02
-7.406
-7.862
-8.383
-8.968
-9.613
-10.315
-11.069
-11.871
-12.717
-13.602
-14.521
-15.47
-16.443
-17.435
-18.442
-19.459
-20.482
-21.506
-22.528
-23.543
-24.548
-25.541
-26.518
-27.477
-28.414
-29.329
-30.219
-31.084
-31.92
-32.729
-33.508
-34.259
-34.98
-35.672
-36.335
-36.97
-37.577
-38.159
-38.716
-39.25
-39.762
-40.255
-40.731
-41.192
-41.64
-42.077
-42.505
-42.926
-43.342
-43.754
-44.163
-44.57
-44.977
-45.382
-45.787
-46.192
-46.595
-46.998
-47.397
-47.793
-48.184
-48.569
-48.945
-49.311
-49.664
-50.004
-50.326
-50.63
-50.912
-51.17
-51.4
-51.601
-51.769
-51.901
-51.994
-52.044
-52.05
-52.009
-51.917
-51.772
-51.573
-51.318
-51.005
-50.634
-50.204
-49.715
-49.166
-48.56
-47.896
-47.176
-46.402
-45.577
-44.702
-43.782
-42.818
-41.814
-40.773
-39.701
-38.599
-37.472
-36.326
-35.162
-33.987
-32.805
-31.621
-30.44
-29.266
-28.105
-26.962
-25.842
-24.749
-23.687
-22.663
-21.678
-20.738
-19.845
-19.004
-18.216
-17.484
-16.811
-16.197
-15.644
-15.153
-14.725
-14.359
-14.055
-13.813
-13.633
-13.513
-13.454
-13.452
-13.509
-13.621
-13.788
-14.007
-14.276
-14.594
-14.957
-15.364
-15.81
-16.294
-16.813
-17.364
-17.944
-18.55
-19.179
-19.828
-20.495
-21.177
-21.872
-22.577
-23.289
-24.007
-24.729
-25.453
-26.177
-26.899
-27.617
-28.33
-29.036
-29.732
-30.417
-31.088
-31.743
-32.38
-32.997
-33.591
-34.16
-34.701
-35.212
-35.69
-36.132
-36.535
-36.898
-37.215
-37.486
-37.705
-37.871
-37.98
-38.029
-38.014
-37.932
-37.78
-37.554
-37.251
-36.868
-36.402
-35.849
-35.207
-34.474
-33.649
-32.728
-31.713
-30.6
-29.391
-28.084
-26.681
-25.183
-23.591
-21.907
-20.134
-18.275
-16.334
-14.316
-12.226
-10.069
-7.851
-5.581
-3.264
-0.909
1.475
3.88
6.297
8.715
11.124
13.514
15.873
18.19
20.456
22.658
24.787
26.832
28.783
30.63
32.364
33.975
35.454
36.793
37.984
39.019
39.892
40.598
41.13
41.484
41.659
41.651
41.459
41.083
40.523
39.78
38.858
37.758
36.484
35.042
33.438
31.678
29.771
27.728
25.559
23.275
20.892
18.42
15.875
13.268
10.612
7.919
5.204
2.482
-0.232
-2.923
-5.576
-8.171
-10.69
-13.119
-15.444
-17.66
-19.761
-21.739
-23.583
-25.284
-26.829
-28.205
-29.401
-30.394
-31.167
-31.706
-32.003
-32.066
-31.901
-31.51
-30.889
-30.033
-28.939
-27.618
-26.085
-24.355
-22.458
-20.427
-18.316
-16.2
-14.138
-12.189
-10.408
-8.828
-7.494
-6.456
-5.746
-5.417
-5.527
-6.048
-6.915
-8.005
-9.08
-9.944
-10.427
-10.265
-9.266
-7.429
-4.858
-1.945
0.725
2.745
3.776
3.446
1.638
-1.482
-5.484
-9.41
-12.086
-12.522
-9.681
-2.629
9.223
26.028
47.282
71.956
98.815
126.135
151.788
173
185.982
188.515
179.943
160.478
133.595
101.011
60.836
11.492
-52.716
-135.635
-230.965
-329.196
-414.832
-470.468
-492.039
-483.113
-452.269
-413.309
-371.764
-326.446
-278.046
-226.936
-176.818
-136.085
-107.651
-89.299
-78.033
-68.295
-57.853
-48.932
-42.392
-38.62
-36.798
-34.197
-29.583
-23.09
-15.087
-6.409
2.309
10.708
18.182
24.04
27.974
30.007
30.335
29.279
27.135
24.169
20.738
17.262
14.025
11.187
8.836
6.976
5.605
4.733
4.327
4.324
4.67
5.317
6.218
7.346
8.655
10.08
11.564
13.041
14.448
15.73
16.831
17.709
18.346
18.738
18.899
18.846
18.601
18.192
17.654
17.02
16.32
15.584
14.838
14.111
13.432
12.831
12.338
11.976
11.759
11.697
11.793
12.051
12.469
13.046
13.771
14.64
15.648
16.791
18.068
19.475
21.007
22.657
24.421
26.291
28.264
30.333
32.493
34.739
37.064
39.464
41.935
44.471
47.065
49.711
52.401
55.128
57.884
60.663
63.455
66.253
69.051
71.84
74.614
77.367
80.092
82.783
85.434
88.038
90.592
93.089
95.524
97.892
100.189
102.411
104.553
106.611
108.583
110.465
112.255
113.95
115.549
117.051
118.454
119.758
120.962
122.066
123.069
123.974
124.78
125.489
126.101
126.621
127.048
127.386
127.637
127.803
127.887
127.892
127.821
127.676
127.46
127.176
126.828
126.417
125.948
125.424
124.846
124.219
123.544
122.823
122.061
121.257
120.414
119.533
118.617
117.666
116.681
115.664
114.615
113.535
112.425
111.284
110.114
108.913
107.682
106.42
105.128
103.805
102.451
101.065
99.649
98.202
96.724
95.216
93.678
92.111
90.516
88.894
87.246
85.574
83.88
82.165
80.433
78.686
76.928
75.161
73.389
71.617
69.846
68.082
66.329
64.59
62.871
61.176
59.509
57.875
56.279
54.726
53.22
51.765
50.366
49.027
47.751
46.542
45.402
44.336
43.345
42.431
41.597
40.844
40.172
39.583
39.075
38.649
38.302
38.034
37.842
37.725
37.678
37.699
37.785
37.93
38.132
38.385
38.683
39.023
39.397
39.8
40.226
40.669
41.122
41.578
42.032
42.477
42.907
43.316
43.697
44.046
44.355
44.62
44.836
44.998
45.102
45.143
45.118
45.025
44.859
44.619
44.303
43.909
43.436
42.883
42.248
41.533
40.737
39.86
38.904
37.871
36.761
35.577
34.322
32.998
31.609
30.156
28.645
27.078
25.46
23.794
22.084
20.334
18.55
16.734
14.892
13.027
11.143
9.245
7.337
5.421
3.503
1.586
-0.325
-2.228
-4.117
-5.99
-7.841
-9.668
-11.466
-13.232
-14.962
-16.652
-18.3
-19.902
-21.455
-22.957
-24.404
-25.795
-27.126
-28.396
-29.604
-30.747
-31.824
-32.834
-33.777
-34.65
-35.454
-36.188
-36.852
-37.445
-37.967
-38.419
-38.802
-39.115
-39.361
-39.54
-39.656
-39.709
-39.702
-39.639
-39.522
-39.355
-39.141
-38.884
-38.588
-38.258
-37.898
-37.512
-37.104
-36.678
-36.24
-35.792
-35.339
-34.886
-34.434
-33.989
-33.552
-33.128
-32.72
-32.33
-31.961
-31.615
-31.296
-31.004
-30.741
-30.51
-30.31
-30.143
-30.01
-29.91
-29.842
-29.807
-29.804
-29.831
-29.886
-29.969
-30.077
-30.207
-30.358
-30.527
-30.711
-30.909
-31.119
-31.337
-31.563
-31.794
-32.029
-32.267
-32.507
-32.747
-32.988
-33.228
-33.468
-33.708
-33.947
-34.186
-34.427
-34.669
-34.914
-35.162
-35.416
-35.677
-35.947
-36.226
-36.518
-36.825
-37.148
-37.49
-37.853
-38.239
-38.651
-39.091
-39.56
-40.061
-40.595
-41.162
-41.764
-42.402
-43.075
-43.782
-44.524
-45.3
-46.107
-46.944
-47.808
-48.697
-49.609
-50.539
-51.484
-52.44
-53.404
-54.37
-55.336
-56.295
-57.245
-58.179
-59.095
-59.986
-60.848
-61.677
-62.468
-63.217
-63.92
-64.572
-65.171
-65.712
-66.193
-66.611
-66.964
-67.249
-67.466
-67.613
-67.69
-67.696
-67.632
-67.499
-67.299
-67.034
-66.705
-66.316
-65.871
-65.371
-64.823
-64.228
-63.593
-62.92
-62.216
-61.484
-60.73
-59.957
-59.172
-58.377
-57.578
-56.78
-55.985
-55.198
-54.422
-53.661
-52.917
-52.193
-51.492
-50.815
-50.164
-49.539
-48.942
-48.372
-47.83
-47.314
-46.824
-46.357
-45.912
-45.486
-45.075
-44.678
-44.289
-43.905
-43.523
-43.137
-42.743
-42.338
-41.917
-41.474
-41.007
-40.511
-39.982
-39.416
-38.81
-38.161
-37.466
-36.724
-35.931
-35.087
-34.192
-33.245
-32.245
-31.193
-30.091
-28.94
-27.742
-26.5
-25.215
-23.893
-22.537
-21.151
-19.742
-18.314
-16.874
-15.428
-13.983
-12.546
-11.123
-9.723
-8.352
-7.019
-5.731
-4.494
-3.318
-2.21
-1.177
-0.228
0.632
1.396
2.056
2.61
3.051
3.378
3.59
3.684
3.661
3.521
3.263
2.889
2.398
1.793
1.076
0.253
-0.673
-1.691
-2.793
-3.968
-5.206
-6.497
-7.84
-9.227
-10.651
-12.105
-13.575
-15.05
-16.511
-17.936
-19.3
-20.58
-21.754
-22.808
-23.735
-24.532
-25.199
-25.726
-26.096
-26.301
-26.339
-26.214
-25.932
-25.509
-24.972
-24.365
-23.753
-23.197
-22.736
-22.408
-22.242
-22.262
-22.504
-23.011
-23.807
-24.927
-26.414
-28.227
-30.28
-32.43
-34.411
-35.983
-36.938
-36.997
-35.965
-33.889
-30.948
-27.543
-24.29
-21.582
-19.745
-19.256
-20.313
-22.701
-25.919
-29.004
-30.791
-30.457
-27.12
-19.604
-7.155
10.372
32.656
58.793
87.571
117.752
146.815
170.944
186.888
192.559
188.512
176.853
158.504
132.674
94.901
40.494
-33.249
-126.635
-231.302
-335.19
-425.036
-486.467
-515.316
-513.56
-485.993
-442.925
-391.109
-335.759
-283.932
-239.111
-203.011
-175.304
-151.548
-128.215
-104.382
-80.925
-60.953
-46.527
-37.655
-33.108
-30.451
-27.901
-24.59
-20.201
-15.067
-9.48
-3.521
2.549
8.318
13.311
16.926
18.879
19.279
18.306
16.227
13.362
9.99
6.471
3.246
0.579
-1.426
-2.726
-3.386
-3.462
-2.971
-1.986
-0.609
1.077
2.985
5.052
7.243
9.486
11.698
13.797
15.692
17.331
18.693
19.758
20.53
21.023
21.255
21.257
21.072
20.736
20.286
19.757
19.176
18.578
18.002
17.484
17.066
16.774
16.624
16.63
16.798
17.129
17.623
18.274
19.071
20.005
21.07
22.258
23.566
24.984
26.505
28.117
29.81
31.573
33.398
35.274
37.192
39.142
41.115
43.103
45.098
47.092
49.074
51.037
52.969
54.861
56.705
58.493
60.215
61.864
63.434
64.918
66.314
67.615
68.82
69.924
70.926
71.825
72.62
73.31
73.898
74.383
74.768
75.055
75.248
75.349
75.364
75.297
75.152
74.935
74.65
74.304
73.901
73.447
72.947
72.407
71.832
71.227
70.597
69.947
69.281
68.604
67.919
67.228
66.536
65.843
65.153
64.465
63.782
63.103
62.43
61.762
61.098
60.438
59.78
59.123
58.465
57.804
57.137
56.461
55.775
55.075
54.359
53.625
52.868
52.088
51.281
50.444
49.576
48.675
47.738
46.764
45.752
44.7
43.608
42.476
41.304
40.092
38.841
37.552
36.227
34.868
33.478
32.058
30.612
29.143
27.656
26.154
24.641
23.122
21.602
20.086
18.578
17.083
15.606
14.153
12.728
11.337
9.984
8.673
7.411
6.2
5.047
3.954
2.925
1.966
1.077
0.264
-0.472
-1.129
-1.704
-2.195
-2.603
-2.926
-3.164
-3.317
-3.386
-3.372
-3.275
-3.098
-2.842
-2.511
-2.106
-1.63
-1.088
-0.481
0.186
0.909
1.685
2.51
3.379
4.287
5.23
6.204
7.202
8.22
9.253
10.295
11.342
12.387
13.426
14.454
15.465
16.455
17.419
18.352
19.252
20.112
20.93
21.703
22.426
23.097
23.714
24.273
24.773
25.211
25.586
25.897
26.142
26.321
26.432
26.475
26.451
26.359
26.201
25.976
25.687
25.336
24.924
24.454
23.928
23.351
22.724
22.053
21.339
20.587
19.801
18.984
18.14
17.274
16.389
15.488
14.576
13.656
12.732
11.806
10.882
9.963
9.051
8.15
7.262
6.389
5.534
4.699
3.886
3.097
2.335
1.599
0.891
0.213
-0.435
-1.053
-1.641
-2.199
-2.727
-3.225
-3.694
-4.134
-4.546
-4.93
-5.288
-5.62
-5.926
-6.206
-6.462
-6.693
-6.9
-7.082
-7.238
-7.369
-7.474
-7.551
-7.601
-7.623
-7.616
-7.579
-7.513
-7.416
-7.288
-7.129
-6.938
-6.716
-6.461
-6.174
-5.854
-5.502
-5.118
-4.701
-4.254
-3.777
-3.269
-2.733
-2.17
-1.581
-0.967
-0.331
0.325
1
1.689
2.391
3.101
3.816
4.533
5.247
5.955
6.652
7.336
8.003
8.649
9.27
9.865
10.429
10.96
11.456
11.915
12.334
12.712
13.049
13.344
13.595
13.804
13.97
14.094
14.177
14.219
14.223
14.188
14.118
14.014
13.878
13.714
13.523
13.309
13.075
12.825
12.561
12.287
12.006
11.721
11.435
11.151
10.872
10.599
10.336
10.084
9.845
9.62
9.412
9.22
9.045
8.888
8.75
8.629
8.526
8.441
8.374
8.325
8.295
8.284
8.291
8.317
8.364
8.43
8.518
8.627
8.76
8.918
9.101
9.314
9.557
9.835
10.149
10.503
10.901
11.347
11.844
12.395
13.007
13.683
14.428
15.246
16.143
17.122
18.189
19.347
20.6
21.951
23.403
24.956
26.614
28.375
30.241
32.21
34.28
36.45
38.715
41.072
43.515
46.037
48.631
51.289
54.002
56.758
59.547
62.357
65.176
67.991
70.788
73.553
76.271
78.926
81.502
83.983
86.354
88.598
90.699
92.641
94.409
95.99
97.369
98.534
99.473
100.174
100.628
100.825
100.758
100.418
99.801
98.9
97.715
96.245
94.491
92.455
90.144
87.565
84.728
81.644
78.323
74.777
71.018
67.064
62.932
58.64
54.209
49.659
45.014
40.303
35.551
30.781
26.014
21.262
16.543
11.878
7.287
2.794
-1.58
-5.813
-9.877
-13.74
-17.371
-20.748
-23.858
-26.701
-29.273
-31.557
-33.542
-35.212
-36.561
-37.595
-38.32
-38.75
-38.906
-38.824
-38.557
-38.172
-37.73
-37.293
-36.909
-36.608
-36.441
-36.45
-36.68
-37.215
-38.051
-39.121
-40.324
-41.446
-42.274
-42.67
-42.391
-41.135
-38.861
-35.654
-31.805
-28.005
-24.78
-22.466
-21.606
-22.636
-25.531
-30.069
-35.53
-40.468
-43.671
-44.021
-40.051
-30.593
-15.045
6.83
34.428
66.067
99.859
133.419
163.499
186.77
199.985
199.932
184.855
155.076
111.458
55.914
-11.101
-91.856
-185.747
-288.635
-390.111
-473.417
-526.79
-546.052
-535.79
-509.067
-475.611
-440.089
-403.372
-362.098
-315.967
-267.484
-219.761
-177.219
-142.303
-115.351
-95.983
-82.775
-74.103
-68.952
-66.213
-64.497
-62.643
-59.617
-54.916
-48.787
-41.713
-34.076
-26.313
-18.947
-12.503
-7.599
-4.529
-3.15
-3.211
-4.392
-6.352
-8.808
-11.422
-13.774
-15.594
-16.778
-17.292
-17.202
-16.58
-15.453
-13.894
-12.003
-9.864
-7.561
-5.16
-2.7
-0.243
2.139
4.378
6.397
8.132
9.55
10.627
11.359
11.763
11.857
11.668
11.233
10.593
9.79
8.862
7.846
6.772
5.676
4.596
3.568
2.628
1.804
1.113
0.569
0.181
-0.048
-0.113
-0.016
0.237
0.644
1.202
1.909
2.765
3.767
4.911
6.193
7.606
9.144
10.803
12.577
14.459
16.444
18.525
20.694
22.946
25.273
27.666
30.115
32.609
35.138
37.692
40.26
42.831
45.395
47.942
50.461
52.945
55.383
57.766
60.086
62.335
64.504
66.586
68.574
70.461
72.241
73.906
75.453
76.876
78.17
79.332
80.357
81.244
81.988
82.589
83.045
83.355
83.52
83.539
83.414
83.146
82.736
82.188
81.504
80.687
79.74
78.667
77.47
76.155
74.725
73.184
71.537
69.789
67.945
66.01
63.988
61.887
59.71
57.463
55.152
52.782
50.359
47.888
45.376
42.826
40.244
37.636
35.006
32.359
29.698
27.029
24.355
21.679
19.005
16.336
13.676
11.027
8.392
5.775
3.178
0.604
-1.944
-4.464
-6.953
-9.408
-11.828
-14.209
-16.55
-18.847
-21.1
-23.304
-25.458
-27.56
-29.606
-31.596
-33.525
-35.392
-37.195
-38.93
-40.596
-42.189
-43.707
-45.147
-46.506
-47.781
-48.969
-50.067
-51.074
-51.986
-52.802
-53.52
-54.139
-54.657
-55.074
-55.39
-55.603
-55.714
-55.724
-55.633
-55.444
-55.157
-54.775
-54.301
-53.738
-53.089
-52.357
-51.548
-50.666
-49.715
-48.7
-47.628
-46.503
-45.333
-44.124
-42.882
-41.615
-40.329
-39.033
-37.734
-36.438
-35.153
-33.885
-32.642
-31.429
-30.253
-29.119
-28.032
-26.999
-26.021
-25.105
-24.253
-23.468
-22.752
-22.107
-21.534
-21.033
-20.604
-20.247
-19.961
-19.744
-19.593
-19.508
-19.483
-19.516
-19.604
-19.74
-19.921
-20.142
-20.396
-20.679
-20.984
-21.306
-21.64
-21.979
-22.318
-22.653
-22.977
-23.287
-23.577
-23.845
-24.085
-24.296
-24.475
-24.619
-24.727
-24.799
-24.834
-24.833
-24.795
-24.722
-24.616
-24.478
-24.311
-24.117
-23.9
-23.664
-23.411
-23.147
-22.874
-22.599
-22.326
-22.058
-21.802
-21.56
-21.339
-21.141
-20.971
-20.833
-20.73
-20.665
-20.64
-20.658
-20.72
-20.827
-20.98
-21.178
-21.421
-21.708
-22.036
-22.403
-22.807
-23.245
-23.712
-24.206
-24.721
-25.254
-25.799
-26.353
-26.908
-27.461
-28.006
-28.538
-29.051
-29.541
-30.002
-30.43
-30.819
-31.166
-31.467
-31.717
-31.914
-32.054
-32.136
-32.157
-32.117
-32.013
-31.847
-31.618
-31.327
-30.976
-30.566
-30.101
-29.582
-29.013
-28.398
-27.74
-27.044
-26.314
-25.554
-24.769
-23.963
-23.142
-22.31
-21.472
-20.632
-19.796
-18.967
-18.149
-17.348
-16.566
-15.807
-15.076
-14.375
-13.707
-13.075
-12.48
-11.925
-11.411
-10.939
-10.509
-10.122
-9.777
-9.474
-9.211
-8.987
-8.802
-8.652
-8.535
-8.45
-8.394
-8.365
-8.359
-8.374
-8.408
-8.458
-8.52
-8.593
-8.674
-8.76
-8.848
-8.937
-9.022
-9.102
-9.175
-9.237
-9.287
-9.322
-9.341
-9.342
-9.322
-9.282
-9.22
-9.136
-9.028
-8.897
-8.744
-8.567
-8.367
-8.145
-7.901
-7.637
-7.353
-7.05
-6.729
-6.392
-6.038
-5.67
-5.289
-4.894
-4.488
-4.072
-3.646
-3.213
-2.772
-2.327
-1.877
-1.425
-0.972
-0.52
-0.068
0.383
0.832
1.278
1.724
2.168
2.614
3.062
3.513
3.969
4.43
4.9
5.379
5.871
6.375
6.896
7.436
8
8.593
9.218
9.88
10.58
11.323
12.113
12.952
13.845
14.791
15.794
16.858
17.991
19.201
20.492
21.862
23.306
24.821
26.405
28.054
29.761
31.516
33.313
35.152
37.041
38.991
41.003
43.074
45.189
47.335
49.509
51.714
53.955
56.232
58.543
60.89
63.286
65.747
68.277
70.854
73.439
75.992
78.486
80.904
83.238
85.477
87.598
89.576
91.387
93.016
94.444
95.646
96.579
97.197
97.476
97.424
97.075
96.463
95.607
94.518
93.202
91.675
89.955
88.062
86.003
83.783
81.412
78.915
76.333
73.712
71.081
68.444
65.79
63.109
60.399
57.665
54.914
52.146
49.366
46.589
43.843
41.162
38.579
36.114
33.778
31.576
29.515
27.61
25.882
24.344
23.015
21.913
21.045
20.421
20.039
19.88
19.916
20.098
20.366
20.663
20.939
21.16
21.296
21.311
21.176
20.86
20.322
19.54
18.478
17.099
15.445
13.623
11.795
10.203
9.057
8.512
8.789
10.085
12.395
15.549
19.186
22.841
26.284
29.426
32.037
33.895
35.018
35.766
36.894
39.169
42.969
48.526
56.301
66.963
80.974
98.137
117.713
139.075
161.738
184.987
206.797
223.721
232.57
231.715
222.494
207.378
187.64
162.358
125.918
72.443
-1.976
-98.316
-207.488
-316.184
-409.458
-471.464
-497.851
-490.904
-456.534
-406.728
-348.709
-287.789
-231.09
-181.48
-141.377
-111.651
-87.954
-66.911
-46.88
-27.484
-11.555
-0.959
4.737
7.013
8.609
11.509
16.073
22.037
28.81
35.855
42.854
49.373
54.782
58.47
60.181
60.01
58.221
55.174
51.209
46.646
41.898
37.414
33.502
30.316
27.906
26.234
25.259
24.958
25.275
26.114
27.388
29.007
30.889
32.974
35.193
37.454
39.667
41.739
43.582
45.147
46.403
47.335
47.947
48.249
48.258
48.005
47.53
46.868
46.057
45.129
44.114
43.047
41.963
40.9
39.892
38.962
38.124
37.387
36.754
36.226
35.802
35.475
35.235
35.074
34.989
34.974
35.027
35.143
35.316
35.54
35.808
36.115
36.457
36.829
37.227
37.648
38.088
38.544
39.015
39.498
39.989
40.485
40.98
41.471
41.955
42.427
42.885
43.324
43.743
44.14
44.511
44.855
45.171
45.456
45.709
45.928
46.111
46.258
46.367
46.436
46.465
46.453
46.4
46.304
46.167
45.988
45.768
45.506
45.204
44.861
44.479
44.058
43.598
43.102
42.57
42.002
41.4
40.764
40.097
39.399
38.671
37.914
37.128
36.315
35.477
34.613
33.726
32.817
31.887
30.939
29.974
28.993
27.999
26.992
25.974
24.945
23.908
22.863
21.809
20.749
19.682
18.608
17.527
16.438
15.341
14.236
13.12
11.993
10.854
9.7
8.531
7.345
6.141
4.916
3.67
2.401
1.107
-0.213
-1.561
-2.939
-4.347
-5.789
-7.264
-8.774
-10.32
-11.901
-13.519
-15.173
-16.862
-18.586
-20.342
-22.129
-23.945
-25.787
-27.652
-29.535
-31.432
-33.339
-35.251
-37.161
-39.065
-40.955
-42.826
-44.671
-46.484
-48.258
-49.987
-51.664
-53.283
-54.836
-56.318
-57.722
-59.042
-60.271
-61.405
-62.439
-63.366
-64.183
-64.887
-65.473
-65.938
-66.281
-66.499
-66.591
-66.558
-66.399
-66.115
-65.708
-65.181
-64.538
-63.781
-62.916
-61.948
-60.882
-59.724
-58.482
-57.161
-55.769
-54.314
-52.802
-51.243
-49.644
-48.013
-46.359
-44.691
-43.016
-41.343
-39.68
-38.036
-36.417
-34.831
-33.286
-31.788
-30.345
-28.962
-27.646
-26.401
-25.233
-24.145
-23.142
-22.225
-21.398
-20.662
-20.018
-19.467
-19.01
-18.646
-18.375
-18.196
-18.107
-18.106
-18.192
-18.362
-18.612
-18.94
-19.343
-19.816
-20.355
-20.958
-21.619
-22.335
-23.101
-23.913
-24.765
-25.654
-26.574
-27.521
-28.49
-29.477
-30.478
-31.488
-32.503
-33.52
-34.536
-35.546
-36.548
-37.537
-38.512
-39.469
-40.405
-41.317
-42.202
-43.059
-43.885
-44.677
-45.433
-46.152
-46.831
-47.469
-48.063
-48.613
-49.116
-49.573
-49.98
-50.338
-50.646
-50.903
-51.108
-51.262
-51.363
-51.412
-51.408
-51.351
-51.241
-51.078
-50.862
-50.592
-50.27
-49.896
-49.471
-48.996
-48.472
-47.899
-47.281
-46.619
-45.913
-45.167
-44.383
-43.563
-42.709
-41.825
-40.912
-39.974
-39.013
-38.031
-37.033
-36.019
-34.994
-33.958
-32.916
-31.868
-30.819
-29.77
-28.723
-27.682
-26.648
-25.624
-24.613
-23.615
-22.633
-21.669
-20.723
-19.798
-18.894
-18.011
-17.15
-16.311
-15.495
-14.7
-13.927
-13.174
-12.441
-11.727
-11.029
-10.348
-9.681
-9.028
-8.387
-7.757
-7.137
-6.526
-5.922
-5.324
-4.732
-4.144
-3.559
-2.976
-2.395
-1.815
-1.234
-0.653
-0.071
0.513
1.099
1.685
2.273
2.862
3.451
4.038
4.624
5.206
5.784
6.355
6.917
7.468
8.007
8.53
9.037
9.525
9.991
10.434
10.852
11.243
11.606
11.938
12.239
12.507
12.741
12.94
13.103
13.23
13.319
13.37
13.384
13.359
13.295
13.193
13.054
12.877
12.663
12.413
12.129
11.81
11.46
11.079
10.67
10.234
9.775
9.293
8.791
8.272
7.739
7.192
6.635
6.069
5.497
4.92
4.34
3.759
3.177
2.596
2.017
1.441
0.869
0.301
-0.263
-0.821
-1.374
-1.922
-2.464
-3
-3.531
-4.056
-4.576
-5.091
-5.602
-6.11
-6.615
-7.118
-7.621
-8.124
-8.628
-9.135
-9.646
-10.161
-10.681
-11.206
-11.738
-12.275
-12.818
-13.367
-13.92
-14.477
-15.036
-15.595
-16.153
-16.708
-17.257
-17.797
-18.326
-18.842
-19.341
-19.82
-20.277
-20.708
-21.11
-21.48
-21.813
-22.108
-22.359
-22.563
-22.716
-22.815
-22.856
-22.837
-22.753
-22.601
-22.38
-22.086
-21.719
-21.275
-20.754
-20.156
-19.48
-18.728
-17.899
-16.998
-16.025
-14.985
-13.88
-12.714
-11.493
-10.22
-8.902
-7.542
-6.148
-4.725
-3.28
-1.82
-0.354
1.112
2.569
4.009
5.422
6.801
8.136
9.42
10.642
11.796
12.872
13.862
14.758
15.552
16.236
16.803
17.246
17.56
17.739
17.781
17.683
17.444
17.063
16.544
15.886
15.091
14.162
13.1
11.908
10.593
9.16
7.618
5.974
4.239
2.426
0.548
-1.383
-3.36
-5.378
-7.433
-9.514
-11.608
-13.703
-15.782
-17.834
-19.839
-21.773
-23.615
-25.345
-26.952
-28.435
-29.794
-31.017
-32.087
-32.984
-33.7
-34.236
-34.6
-34.802
-34.853
-34.772
-34.594
-34.369
-34.148
-33.984
-33.914
-33.961
-34.157
-34.531
-35.146
-36.083
-37.334
-38.824
-40.427
-41.953
-43.25
-44.239
-44.725
-44.427
-43.292
-41.432
-39.16
-37.033
-35.397
-34.346
-34.145
-35.155
-37.384
-40.56
-44.014
-46.637
-47.668
-46.64
-42.733
-35.026
-23.02
-6.52
14.155
38.123
64.652
92.149
117.559
137.863
150.866
156.884
157.778
153.791
142.913
119.131
76.326
12.006
-73.479
-172.924
-275.422
-369.799
-443.281
-488.425
-504.322
-493.133
-461.27
-415.343
-359.463
-299.215
-241.666
-192.5
-156.082
-132.386
-115.648
-100.658
-84.542
-67.213
-52.342
-42.382
-37.091
-34.914
-33.089
-29.777
-24.828
-18.729
-12.191
-5.984
-0.883
2.554
3.946
3.085
0.315
-3.777
-8.686
-13.565
-17.321
-19.319
-19.222
-17.006
-13.23
-8.378
-2.73
3.176
8.684
13.417
17.148
19.96
22.327
24.517
26.6
28.702
30.906
33.251
35.775
38.354
40.715
42.704
44.264
45.378
46.102
46.466
46.477
46.182
45.654
44.952
44.127
43.213
42.222
41.172
40.088
38.992
37.907
36.848
35.825
34.841
33.895
32.991
32.134
31.331
30.59
29.918
29.317
28.793
28.353
28.003
27.747
27.588
27.525
27.56
27.694
27.93
28.272
28.72
29.273
29.928
30.683
31.534
32.478
33.508
34.619
35.805
37.059
38.376
39.749
41.172
42.636
44.135
45.661
47.204
48.757
50.312
51.859
53.389
54.895
56.369
57.802
59.187
60.515
61.78
62.976
64.095
65.132
66.082
66.939
67.698
68.355
68.907
69.35
69.68
69.897
69.996
69.978
69.84
69.583
69.207
68.711
68.097
67.366
66.52
65.563
64.497
63.326
62.055
60.688
59.232
57.691
56.072
54.381
52.625
50.811
48.946
47.038
45.093
43.119
41.125
39.117
37.103
35.09
33.088
31.101
29.139
27.209
25.317
23.47
21.674
19.937
18.263
16.658
15.128
13.676
12.306
11.023
9.828
8.724
7.713
6.795
5.97
5.239
4.6
4.053
3.595
3.223
2.936
2.731
2.602
2.548
2.563
2.643
2.784
2.981
3.228
3.521
3.854
4.223
4.621
5.044
5.487
5.944
6.41
6.881
7.352
7.819
8.278
8.726
9.159
9.575
9.973
10.351
10.707
11.041
11.353
11.644
11.914
12.166
12.4
12.619
12.826
13.022
13.211
13.397
13.581
13.768
13.961
14.163
14.378
14.609
14.859
15.131
15.428
15.754
16.11
16.498
16.922
17.382
17.88
18.416
18.991
19.605
20.258
20.948
21.675
22.435
23.226
24.046
24.89
25.755
26.636
27.529
28.428
29.329
30.226
31.113
31.985
32.837
33.662
34.455
35.212
35.925
36.591
37.205
37.762
38.257
38.688
39.05
39.34
39.556
39.694
39.753
39.731
39.627
39.439
39.169
38.816
38.38
37.864
37.27
36.599
35.855
35.041
34.16
33.216
32.213
31.156
30.05
28.898
27.707
26.481
25.225
23.946
22.647
21.333
20.01
18.681
17.35
16.022
14.7
13.387
12.089
10.807
9.546
8.309
7.099
5.919
4.77
3.656
2.577
1.535
0.531
-0.434
-1.359
-2.244
-3.086
-3.886
-4.644
-5.358
-6.029
-6.657
-7.243
-7.787
-8.291
-8.754
-9.176
-9.557
-9.898
-10.196
-10.45
-10.658
-10.82
-10.934
-10.999
-11.017
-10.985
-10.907
-10.783
-10.614
-10.403
-10.147
-9.845
-9.496
-9.1
-8.654
-8.158
-7.611
-7.012
-6.364
-5.671
-4.937
-4.165
-3.353
-2.497
-1.595
-0.65
0.334
1.349
2.39
3.443
4.49
5.501
6.449
7.312
8.079
8.75
9.325
9.803
10.18
10.449
10.615
10.686
10.67
10.574
10.406
10.186
9.957
9.783
9.732
9.852
10.164
10.674
11.373
12.251
13.3
14.492
15.783
17.126
18.458
19.724
20.879
21.85
22.542
22.845
22.597
21.667
20.054
17.754
14.789
11.222
6.984
2.018
-3.539
-9.558
-16.056
-22.987
-30.395
-38.337
-46.433
