Name,Enes Ozkan
Date of Birth,"5 Nov 2001"
Recorded Date,2024-01-14 16:27:50 +0000
Classification,Sinus Rhythm
Symptoms,
Software Version,1.90
Device,"Watch6,14"
Sample Rate,512 hertz


Lead,Lead I
Unit,µV

9.528
9.496
9.36
9.12
8.781
8.346
7.82
7.207
6.514
5.746
4.91
4.013
3.063
2.067
1.035
-0.025
-1.103
-2.19
-3.276
-4.352
-5.409
-6.44
-7.435
-8.39
-9.297
-10.15
-10.945
-11.675
-12.335
-12.92
-13.423
-13.838
-14.159
-14.382
-14.504
-14.522
-14.435
-14.241
-13.942
-13.54
-13.035
-12.428
-11.714
-10.892
-9.966
-8.947
-7.845
-6.678
-5.46
-4.206
-2.936
-1.668
-0.41
0.832
2.064
3.296
4.524
5.742
6.933
8.08
9.18
10.236
11.25
12.237
13.207
14.172
15.162
16.197
17.275
18.385
19.49
20.541
21.515
22.401
23.195
23.904
24.517
25.018
25.397
25.625
25.671
25.505
25.067
24.303
23.188
21.709
19.89
17.781
15.414
12.801
9.951
6.857
3.519
-0.047
-3.831
-7.8
-11.914
-16.131
-20.375
-24.553
-28.582
-32.382
-35.913
-39.195
-42.252
-45.084
-47.683
-50.006
-52.002
-53.657
-54.948
-55.868
-56.428
-56.619
-56.465
-56.063
-55.54
-54.962
-54.327
-53.505
-52.217
-50.222
-47.368
-43.549
-38.724
-33.087
-26.896
-20.43
-14.523
-10.175
-7.956
-8.365
-10.848
-13.35
-15.335
-17.124
-19.331
-24.549
-31.138
-33.545
-26.715
-4.611
32.353
75.9
117.089
147.918
165.381
172.914
174.976
170.711
155.435
124.429
72.438
1.95
-79.61
-168.694
-258.139
-341.924
-415.527
-468.671
-495.695
-495.786
-471.438
-431.232
-384.448
-339.381
-301.678
-274.143
-255.013
-238.526
-220.507
-197.535
-169.96
-142.228
-116.903
-95.642
-78.952
-65.367
-54.442
-46.232
-40.355
-36.816
-35.318
-35.257
-36.043
-36.857
-37.07
-36.385
-34.651
-31.779
-27.724
-22.504
-16.491
-10.399
-4.659
0.512
4.942
8.528
11.049
12.348
12.71
12.732
12.812
13.167
13.897
14.979
16.533
18.735
21.422
24.092
26.489
28.606
30.366
32.001
33.133
32.329
29.75
26.81
25.802
30.737
42.237
56.721
68.891
72.415
64.856
49.691
33.933
24.041
23.51
31.537
42.411
51.792
57.332
57.855
56.291
54.712
53.662
54.184
55.456
56.743
58.294
59.932
61.72
63.859
66.207
68.646
71.178
73.762
76.362
78.989
81.65
84.334
87.053
89.816
92.605
95.408
98.222
101.038
103.844
106.632
109.391
112.106
114.771
117.376
119.911
122.366
124.732
127
129.164
131.214
133.145
134.95
136.624
138.162
139.557
140.807
141.905
142.847
143.63
144.25
144.701
144.98
145.083
145.006
144.745
144.297
143.658
142.826
141.797
140.57
139.143
137.515
135.684
133.651
131.416
128.98
126.344
123.51
120.482
117.262
113.854
110.26
106.487
102.537
98.417
94.13
89.684
85.083
80.335
75.448
70.429
65.287
60.029
54.668
49.214
43.681
38.079
32.421
26.716
20.979
15.229
9.471
3.712
-2.04
-7.779
-13.485
-19.13
-24.713
-30.233
-35.652
-40.936
-46.059
-50.984
-55.722
-60.307
-64.706
-68.868
-72.896
-76.915
-80.837
-84.665
-88.417
-91.802
-95.587
-100.519
-105.522
-110.27
-112.788
-110.717
-106.668
-102.382
-100.454
-104.447
-111.214
-118.09
-123.251
-123.681
-121.548
-119.051
-116.685
-115.793
-115.606
-115.137
-114.584
-113.825
-112.935
-112.122
-111.264
-110.263
-109.166
-107.992
-106.739
-105.422
-104.061
-102.674
-101.293
-99.952
-98.649
-97.386
-96.175
-95.03
-93.965
-92.994
-92.12
-91.347
-90.678
-90.116
-89.659
-89.298
-89.012
-88.785
-88.605
-88.471
-88.389
-88.365
-88.403
-88.505
-88.676
-88.93
-89.282
-89.745
-90.324
-91.029
-91.876
-92.898
-94.145
-95.657
-97.455
-99.537
-101.889
-104.495
-107.329
-110.359
-113.536
-116.788
-120.053
-123.285
-126.437
-129.466
-132.321
-134.92
-137.175
-139.033
-140.453
-141.408
-141.939
-142.063
-141.787
-141.167
-140.269
-139.11
-137.725
-136.164
-134.291
-131.989
-129.465
-126.797
-123.949
-121.362
-118.538
-114.763
-111.123
-108.024
-107.282
-111.975
-121.066
-132.273
-141.097
-140.984
-130.163
-111.721
-92.794
-81.746
-83.531
-96.374
-112.822
-126.076
-131.213
-128.195
-121.992
-115.959
-112.199
-111.218
-111.073
-110.909
-110.771
-110.577
-110.659
-111.101
-111.607
-112.076
-112.53
-112.935
-113.285
-113.598
-113.879
-114.148
-114.444
-114.773
-115.106
-115.434
-115.752
-116.052
-116.332
-116.586
-116.808
-116.994
-117.146
-117.263
-117.341
-117.38
-117.374
-117.323
-117.224
-117.075
-116.874
-116.621
-116.317
-115.962
-115.557
-115.103
-114.603
-114.059
-113.472
-112.845
-112.182
-111.484
-110.755
-109.997
-109.214
-108.41
-107.589
-106.753
-105.907
-105.054
-104.2
-103.346
-102.498
-101.658
-100.83
-100.017
-99.223
-98.449
-97.699
-96.974
-96.275
-95.604
-94.96
-94.344
-93.754
-93.187
-92.642
-92.115
-91.603
-91.099
-90.601
-90.101
-89.595
-89.075
-88.535
-87.969
-87.367
-86.724
-86.03
-85.279
-84.462
-83.571
-82.598
-81.534
-80.372
-79.103
-77.72
-76.216
-74.583
-72.814
-70.905
-68.851
-66.647
-64.292
-61.784
-59.121
-56.304
-53.334
-50.216
-46.951
-43.547
-40.007
-36.341
-32.556
-28.663
-24.671
-20.592
-16.439
-12.223
-7.959
-3.66
0.658
4.983
9.298
13.589
17.839
22.032
26.154
30.187
34.115
37.921
41.589
45.105
48.453
51.62
54.596
57.37
59.933
62.282
64.412
66.322
68.009
69.471
70.708
71.725
72.526
73.12
73.515
73.722
73.754
73.631
73.37
72.985
72.486
71.875
71.16
70.352
69.467
68.521
67.531
66.512
65.49
64.498
63.567
62.723
61.978
61.33
60.786
60.361
60.08
59.969
60.046
60.31
60.758
61.39
62.196
63.158
64.247
65.398
66.545
67.627
68.599
69.424
70.071
70.479
70.543
70.213
69.526
68.615
67.755
67.245
67.309
68.212
70.271
73.603
78.095
83.334
88.375
92.171
93.887
92.708
88.036
79.863
68.684
55.623
42.8
32.647
27.48
29.643
40.968
62.311
93.618
133.809
180.418
230.065
278.867
322.474
356.512
377.124
381.336
366.961
334.034
284.897
222.284
148.945
65.621
-28.241
-129.887
-231.648
-320.729
-383.965
-414.935
-415.822
-396.469
-367.695
-335.574
-301.58
-263.652
-220.978
-175.946
-132.265
-93.962
-63.094
-39.679
-22.891
-11.251
-3.187
3.03
9.279
17.067
27.307
40.219
55.387
72.044
89.222
105.688
120.146
131.382
138.305
140.545
138.45
132.755
124.552
114.957
104.939
95.676
88.541
84.301
83.12
84.651
87.993
92.439
97.581
102.787
107.248
110.472
112.259
112.836
112.88
112.815
112.763
112.89
113.353
114.233
115.558
117.155
118.647
119.809
120.575
120.922
120.903
120.554
119.882
118.944
117.843
116.648
115.407
114.146
112.862
111.57
110.307
109.104
107.986
106.972
106.064
105.264
104.571
103.98
103.482
103.073
102.749
102.507
102.348
102.272
102.28
102.371
102.54
102.781
103.086
103.448
103.862
104.324
104.831
105.382
105.973
106.603
107.268
107.965
108.689
109.436
110.202
110.981
111.771
112.567
113.367
114.169
114.97
115.768
116.56
117.343
118.115
118.872
119.609
120.325
121.013
121.67
122.291
122.872
123.41
123.898
124.333
124.711
125.026
125.274
125.449
125.546
125.56
125.484
125.314
125.043
124.666
124.177
123.57
122.841
121.983
120.992
119.863
118.591
117.172
115.602
113.877
111.996
109.957
107.758
105.4
102.884
100.21
97.382
94.402
91.274
88.003
84.592
81.049
77.379
73.589
69.687
65.682
61.581
57.395
53.133
48.805
44.422
39.994
35.533
31.049
26.555
22.061
17.579
13.121
8.698
4.321
0.001
-4.251
-8.426
-12.513
-16.505
-20.392
-24.167
-27.822
-31.352
-34.75
-38.011
-41.133
-44.109
-46.934
-49.606
-52.121
-54.479
-56.68
-58.719
-60.593
-62.308
-63.872
-65.289
-66.569
-67.705
-68.686
-69.525
-70.235
-70.792
-71.177
-71.377
-71.37
-71.18
-70.853
-70.369
-69.689
-68.929
-68.225
-67.5
-66.766
-66.051
-65.073
-64.603
-65.394
-66.378
-67.233
-65.997
-60.319
-52.806
-45.195
-40.075
-40.998
-44.827
-48.902
-51.403
-49.318
-44.805
-40.053
-35.55
-32.632
-30.528
-28.249
-25.988
-23.62
-21.216
-18.981
-16.786
-14.529
-12.248
-9.954
-7.638
-5.306
-2.97
-0.638
1.669
3.921
6.126
8.289
10.401
12.459
14.46
16.399
18.275
20.088
21.835
23.511
25.116
26.649
28.108
29.495
30.81
32.055
33.23
34.338
35.381
36.362
37.284
38.151
38.964
39.728
40.446
41.123
41.76
42.364
42.937
43.484
44.01
44.518
45.012
45.498
45.98
46.461
46.946
47.44
47.945
48.466
49.005
49.567
50.152
50.763
51.401
52.067
52.76
53.48
54.226
54.995
55.787
56.597
57.424
58.264
59.113
59.968
60.825
61.68
62.529
63.368
64.192
64.998
65.782
66.538
67.264
67.954
68.604
69.21
69.765
70.268
70.715
71.103
71.429
71.689
71.878
71.997
72.049
72.024
71.915
71.718
71.423
71.04
70.586
70.053
69.429
68.75
68.04
67.323
66.631
65.946
65.226
64.502
63.826
63.082
62.133
61.071
59.892
58.577
57.44
55.656
52.427
48.912
45.468
44.219
47.706
53.131
58.632
61.432
57.714
50.868
43.765
38.377
37.968
40.214
42.75
45.044
45.647
45.396
45.389
45.426
45.619
45.914
46.153
46.52
47.178
48.094
49.183
50.435
51.921
53.551
55.032
56.274
57.332
58.172
59.095
59.545
57.748
54.039
50.042
48.39
54.097
66.94
81.845
93.791
95.647
86.818
74.057
62.59
58.018
61.416
67.731
73.819
77.577
78.32
78.099
77.869
77.553
77.224
76.573
75.525
74.356
73.136
71.812
70.38
68.858
67.264
65.598
63.822
61.917
59.93
57.934
55.986
54.094
52.2
50.29
48.444
46.617
44.578
42.275
39.811
37.183
34.669
31.839
27.128
20.775
14.266
9.899
12.131
20.976
31.906
40.501
40.471
31.036
18.198
6.597
1.114
2.841
7.247
11.454
13.598
12.964
11.325
9.53
7.49
5.271
2.582
-0.634
-4.07
-7.509
-10.738
-13.472
-15.473
-16.56
-16.622
-15.758
-14.187
-12.219
-10.333
-9.004
-8.667
-9.611
-11.845
-15.004
-18.513
-21.713
-23.726
-23.572
-20.138
-12.517
-0.398
16.015
36.261
59.712
85.321
110.651
131.904
145.586
149.592
145.015
134.428
118.876
97.139
63.161
10.552
-64.239
-161.623
-272.519
-383.791
-481.195
-549.523
-583.03
-582.299
-552.719
-505.147
-448.271
-389.716
-334.472
-284.464
-239.91
-198.165
-158.148
-119.568
-83.549
-53.847
-32.262
-19.111
-13.255
-11.517
-11.143
-10.148
-7.378
-2.688
3.863
12.078
21.436
31.272
40.562
48.165
53.487
56.344
56.838
55.334
52.23
47.955
43.108
38.352
34.136
30.704
28.148
26.428
25.522
25.43
26.12
27.529
29.609
32.327
35.647
39.539
43.924
48.667
53.614
58.589
63.439
68.063
72.394
76.386
80.018
83.278
86.158
88.666
90.804
92.562
93.94
94.948
95.615
95.999
96.176
96.238
96.266
96.324
96.455
96.689
97.043
97.527
98.145
98.894
99.774
100.8
101.982
103.334
104.856
106.542
108.371
110.32
112.364
114.48
116.652
118.866
121.112
123.383
125.676
127.989
130.319
132.657
134.99
137.306
139.59
141.831
144.019
146.145
148.198
150.17
152.052
153.836
155.512
157.069
158.497
159.784
160.92
161.896
162.702
163.331
163.777
164.034
164.097
163.961
163.623
163.08
162.329
161.368
160.194
158.807
157.208
155.397
153.375
151.145
148.71
146.074
143.242
140.22
137.014
133.631
130.079
126.366
122.5
118.49
114.345
110.075
105.689
101.197
96.61
91.937
87.191
82.381
77.519
72.616
67.684
62.733
57.776
52.824
47.889
42.982
38.114
33.298
28.545
23.866
19.273
14.775
10.384
6.108
1.959
-2.056
-5.928
-9.65
-13.213
-16.611
-19.838
-22.888
-25.755
-28.435
-30.924
-33.217
-35.312
-37.206
-38.898
-40.387
-41.673
-42.756
-43.638
-44.322
-44.81
-45.105
-45.213
-45.138
-44.887
-44.465
-43.88
-43.14
-42.254
-41.23
-40.077
-38.806
-37.427
-35.949
-34.383
-32.74
-31.031
-29.267
-27.458
-25.616
-23.752
-21.877
-20.003
-18.14
-16.299
-14.491
-12.725
-11.011
-9.358
-7.775
-6.268
-4.846
-3.514
-2.28
-1.146
-0.12
0.798
1.602
2.292
2.867
3.325
3.667
3.895
4.01
4.013
3.908
3.698
3.385
2.976
2.473
1.882
1.209
0.46
-0.36
-1.242
-2.181
-3.17
-4.2
-5.265
-6.359
-7.474
-8.603
-9.741
-10.88
-12.015
-13.14
-14.249
-15.339
-16.404
-17.441
-18.446
-19.417
-20.352
-21.248
-22.106
-22.924
-23.702
-24.44
-25.139
-25.8
-26.424
-27.012
-27.567
-28.091
-28.589
-29.062
-29.516
-29.953
-30.379
-30.798
-31.215
-31.634
-32.059
-32.495
-32.947
-33.419
-33.915
-34.441
-34.999
-35.594
-36.23
-36.909
-37.634
-38.408
-39.232
-40.108
-41.037
-42.02
-43.056
-44.146
-45.291
-46.488
-47.738
-49.039
-50.39
-51.788
-53.231
-54.715
-56.237
-57.794
-59.381
-60.995
-62.63
-64.284
-65.951
-67.626
-69.306
-70.985
-72.657
-74.319
-75.965
-77.59
-79.189
-80.756
-82.289
-83.781
-85.229
-86.63
-87.98
-89.274
-90.51
-91.684
-92.794
-93.835
-94.805
-95.702
-96.522
-97.265
-97.927
-98.509
-99.008
-99.423
-99.755
-100.002
-100.163
-100.239
-100.229
-100.133
-99.95
-99.682
-99.329
-98.89
-98.368
-97.764
-97.079
-96.315
-95.473
-94.555
-93.563
-92.499
-91.365
-90.163
-88.897
-87.569
-86.181
-84.739
-83.245
-81.704
-80.122
-78.502
-76.848
-75.168
-73.465
-71.745
-70.015
-68.278
-66.542
-64.814
-63.098
-61.405
-59.74
-58.112
-56.528
-54.999
-53.531
-52.133
-50.811
-49.572
-48.42
-47.362
-46.4
-45.539
-44.782
-44.133
-43.595
-43.17
-42.86
-42.664
-42.579
-42.603
-42.73
-42.957
-43.277
-43.685
-44.177
-44.755
-45.422
-46.181
-47.026
-47.951
-48.949
-50.01
-51.125
-52.282
-53.458
-54.631
-55.783
-56.898
-57.969
-58.986
-59.929
-60.772
-61.484
-62.05
-62.476
-62.77
-62.932
-62.963
-62.859
-62.65
-62.41
-62.209
-62.118
-62.205
-62.502
-63.083
-64.083
-65.549
-67.449
-69.648
-71.871
-73.901
-75.667
-77.009
-77.679
-77.652
-77.064
-76.352
-76.303
-77.44
-79.898
-83.895
-89.694
-97.09
-105.53
-113.897
-120.426
-123.83
-123.456
-118.515
-108.086
-91.745
-69.484
-42.091
-11.399
21.119
54.494
87.247
117.16
141.875
159.039
166.671
163.633
148.574
119.581
76.585
22.227
-40.602
-108.734
-182.205
-264.845
-355.79
-449.742
-534.425
-592.398
-615.558
-602.593
-560.334
-503.855
-440.376
-375.586
-315.524
-260.415
-215.853
-185.34
-165.097
-152.885
-143.86
-134.831
-127.889
-123.792
-122.474
-122.452
-120.617
-115.615
-107.505
-97.049
-85.62
-74.069
-63.099
-53.783
-46.744
-42.182
-40.05
-39.868
-41.126
-43.442
-46.322
-49.203
-51.684
-53.507
-54.549
-54.849
-54.435
-53.314
-51.534
-49.16
-46.257
-42.906
-39.172
-35.114
-30.806
-26.344
-21.838
-17.407
-13.165
-9.193
-5.544
-2.254
0.663
3.198
5.356
7.157
8.634
9.823
10.76
11.48
12.018
12.416
12.721
12.985
13.257
13.574
13.963
14.442
15.026
15.728
16.555
17.508
18.583
19.782
21.105
22.556
24.139
25.855
27.703
29.683
31.791
34.027
36.391
38.881
41.495
44.232
47.09
50.066
53.158
56.362
59.671
63.077
66.572
70.146
73.79
77.492
81.242
85.029
88.84
92.666
96.494
100.313
104.111
107.877
111.597
115.261
118.857
122.372
125.795
129.114
132.318
135.396
138.337
141.131
143.768
146.239
148.534
150.647
152.569
154.294
155.815
157.127
158.225
159.106
159.765
160.201
160.411
160.393
160.148
159.675
158.975
158.049
156.9
155.53
153.942
152.14
150.129
147.914
145.501
142.896
140.105
137.138
134.001
130.702
127.251
123.657
119.928
116.076
112.109
108.038
103.873
99.626
95.307
90.927
86.498
82.03
77.536
73.027
68.515
64.01
59.525
55.069
50.655
46.293
41.993
37.764
33.618
29.562
25.606
21.757
18.024
14.414
10.935
7.591
4.391
1.338
-1.56
-4.3
-6.877
-9.287
-11.526
-13.593
-15.483
-17.196
-18.73
-20.085
-21.262
-22.26
-23.082
-23.73
-24.207
-24.516
-24.661
-24.647
-24.478
-24.16
-23.699
-23.101
-22.37
-21.515
-20.541
-19.455
-18.263
-16.973
-15.591
-14.125
-12.582
-10.97
-9.296
-7.568
-5.794
-3.982
-2.14
-0.277
1.601
3.484
5.366
7.239
9.096
10.93
12.736
14.507
16.239
17.926
19.565
21.153
22.685
24.16
25.574
26.926
28.215
29.437
30.593
31.681
32.701
33.651
34.531
35.342
36.084
36.757
37.362
37.902
38.377
38.791
39.145
39.443
39.688
39.885
40.036
40.146
40.22
40.262
40.275
40.264
40.233
40.184
40.122
40.049
39.968
39.882
39.792
39.702
39.612
39.526
39.444
39.369
39.303
39.246
39.201
39.169
39.15
39.147
39.16
39.189
39.234
39.297
39.375
39.468
39.575
39.694
39.822
39.957
40.096
40.235
40.372
40.502
40.624
40.733
40.827
40.902
40.956
40.985
40.987
40.959
40.899
40.804
40.67
40.497
40.281
40.019
39.71
39.35
38.938
38.469
37.943
37.355
36.705
35.989
35.206
34.354
33.433
32.441
31.378
30.245
29.043
27.772
26.434
25.03
23.561
22.031
20.441
18.793
17.09
15.335
13.531
11.679
9.785
7.851
5.88
3.875
1.841
-0.219
-2.301
-4.401
-6.514
-8.635
-10.759
-12.88
-14.994
-17.093
-19.173
-21.228
-23.252
-25.239
-27.186
-29.085
-30.934
-32.727
-34.459
-36.127
-37.726
-39.253
-40.705
-42.078
-43.37
-44.578
-45.7
-46.734
-47.677
-48.529
-49.287
-49.95
-50.515
-50.982
-51.349
-51.616
-51.783
-51.849
-51.816
-51.685
-51.457
-51.135
-50.722
-50.219
-49.629
-48.957
-48.205
-47.377
-46.477
-45.509
-44.477
-43.386
-42.241
-41.045
-39.804
-38.52
-37.199
-35.845
-34.462
-33.056
-31.631
-30.192
-28.747
-27.301
-25.862
-24.438
-23.035
-21.661
-20.322
-19.026
-17.779
-16.587
-15.453
-14.383
-13.38
-12.45
-11.597
-10.823
-10.132
-9.526
-9.009
-8.584
-8.253
-8.017
-7.872
-7.817
-7.85
-7.971
-8.183
-8.486
-8.875
-9.346
-9.892
-10.506
-11.179
-11.895
-12.628
-13.351
-14.044
-14.688
-15.276
-15.801
-16.254
-16.626
-16.911
-17.101
-17.201
-17.221
-17.169
-17.061
-16.922
-16.787
-16.721
-16.801
-17.084
-17.627
-18.457
-19.575
-20.996
-22.733
-24.797
-27.213
-29.988
-33.078
-36.464
-40.138
-44.01
-47.938
-51.652
-54.742
-56.838
-57.681
-57.097
-55
-51.498
-46.844
-41.5
-36.234
-31.815
-28.898
-27.847
-28.672
-30.983
-34.109
-37.156
-38.796
-37.497
-31.728
-20.364
-2.951
20.235
48.415
80.385
114.083
146.718
175.1
195.874
206.036
203.258
185.53
152.414
105.718
47.737
-19.294
-95.228
-181.034
-273.691
-365.35
-443.006
-494.367
-515.675
-510.256
-487.087
-453.412
-409.871
-356.335
-294.386
-231.587
-179.437
-144.986
-128.419
-122.155
-116.701
-107.261
-94.084
-81.257
-72.091
-66.451
-62.173
-56.741
-49.168
-39.951
-29.952
-19.999
-10.514
-1.945
4.996
9.945
12.887
13.996
13.656
12.173
9.743
6.707
3.503
0.451
-2.222
-4.391
-6.062
-7.217
-7.829
-7.928
-7.564
-6.798
-5.703
-4.338
-2.746
-0.983
0.894
2.823
4.726
6.533
8.176
9.585
10.716
11.544
12.054
12.253
12.157
11.784
11.17
10.353
9.368
8.249
7.027
5.728
4.385
3.03
1.695
0.417
-0.782
-1.883
-2.873
-3.744
-4.492
-5.113
-5.611
-5.992
-6.258
-6.414
-6.458
-6.391
-6.212
-5.924
-5.529
-5.03
-4.428
-3.724
-2.92
-2.016
-1.014
0.086
1.284
2.581
3.976
5.468
7.055
8.734
10.504
12.361
14.304
16.329
18.435
20.617
22.876
25.207
27.61
30.08
32.616
35.214
37.872
40.584
43.349
46.161
49.017
51.911
54.837
57.791
60.765
63.754
66.749
69.745
72.731
75.702
78.648
81.561
84.431
87.25
90.009
92.698
95.308
97.829
100.251
102.566
104.762
106.832
108.766
110.554
112.189
113.661
114.964
116.09
117.032
117.784
118.341
118.699
118.853
118.801
118.542
118.073
117.396
116.511
115.42
114.128
112.638
110.956
109.088
107.041
104.823
102.444
99.914
97.242
94.442
91.524
88.503
85.391
82.203
78.953
75.655
72.325
68.976
65.626
62.287
58.975
55.705
52.491
49.348
46.288
43.324
40.47
37.737
35.135
32.674
30.364
28.212
26.224
24.407
22.764
21.3
20.015
18.912
17.989
17.245
16.676
16.28
16.051
15.983
16.07
16.302
16.673
17.172
17.79
18.517
19.341
20.252
21.237
22.285
23.384
24.521
25.685
26.862
28.041
29.209
30.357
31.472
32.545
33.565
34.524
35.413
36.225
36.952
37.591
38.135
38.58
38.926
39.168
39.307
39.342
39.274
39.104
38.833
38.465
38.002
37.447
36.806
36.081
35.277
34.4
33.456
32.449
31.386
30.273
29.116
27.922
26.697
25.446
24.178
22.896
21.608
20.319
19.033
17.756
16.491
15.242
14.013
12.806
11.623
10.466
9.336
8.235
7.163
6.12
5.107
4.125
3.174
2.253
1.363
0.504
-0.324
-1.121
-1.888
-2.625
-3.332
-4.011
-4.662
-5.286
-5.884
-6.457
-7.006
-7.533
-8.038
-8.523
-8.989
-9.436
-9.865
-10.277
-10.672
-11.05
-11.411
-11.755
-12.081
-12.39
-12.681
-12.954
-13.211
-13.45
-13.673
-13.881
-14.075
-14.255
-14.424
-14.582
-14.731
-14.872
-15.007
-15.137
-15.263
-15.386
-15.507
-15.626
-15.744
-15.861
-15.976
-16.091
-16.204
-16.315
-16.425
-16.534
-16.641
-16.745
-16.848
-16.948
-17.046
-17.14
-17.23
-17.314
-17.393
-17.464
-17.526
-17.577
-17.615
-17.638
-17.644
-17.631
-17.595
-17.535
-17.448
-17.332
-17.186
-17.008
-16.796
-16.551
-16.271
-15.956
-15.607
-15.225
-14.808
-14.359
-13.878
-13.366
-12.824
-12.254
-11.658
-11.038
-10.395
-9.734
-9.056
-8.364
-7.662
-6.952
-6.238
-5.523
-4.81
-4.104
-3.408
-2.725
-2.06
-1.418
-0.801
-0.213
0.342
0.863
1.347
1.793
2.199
2.565
2.889
3.173
3.416
3.617
3.777
3.897
3.979
4.024
4.035
4.016
3.971
3.906
3.824
3.731
3.632
3.532
3.434
3.344
3.266
3.204
3.161
3.144
3.159
3.214
3.317
3.475
3.694
3.983
4.347
4.792
5.322
5.934
6.632
7.417
8.295
9.275
10.36
11.55
12.843
14.236
15.722
17.29
18.92
20.581
22.25
23.913
25.563
27.203
28.833
30.451
32.058
33.655
35.246
36.838
38.429
40.009
41.577
43.148
44.758
46.465
48.304
50.289
52.422
54.695
57.093
59.595
62.151
64.691
67.15
69.476
71.636
73.619
75.4
76.929
78.137
78.934
79.261
79.084
78.375
77.112
75.282
72.903
70.048
66.839
63.382
59.76
56.04
52.267
48.508
44.837
41.334
38.082
35.138
32.551
30.377
28.672
27.485
26.825
26.644
26.846
27.347
28.065
28.923
29.841
30.716
31.47
32.047
32.413
32.562
32.461
32.058
31.31
30.192
28.712
26.941
24.937
22.709
20.359
18.1
16.255
15.188
15.09
15.92
17.63
20.351
24.112
28.69
33.505
37.691
40.727
42.697
43.845
44.097
43.458
42.266
41.453
42.703
47.3
55.481
67.045
81.883
99.566
119.074
138.529
154.85
164.914
166.498
157.728
136.677
103.003
58.353
4.801
-54.202
-117.593
-188.023
-264.469
-343.684
-417.709
-471.783
-497.309
-489.954
-450.033
-389.664
-319.701
-251.203
-197.189
-159.538
-136.803
-124.76
-113.044
-97.593
-78.456
-57.237
-39.536
-28.108
-22.222
-20.199
-19.068
-16.831
-13.268
-8.68
-3.469
2.21
8.305
14.531
20.372
25.117
28.385
30.196
30.643
29.925
28.274
25.875
23.035
20.159
17.489
15.143
13.158
11.462
10.004
8.781
7.761
6.907
6.209
5.639
5.182
4.838
4.582
4.388
4.225
4.06
3.876
3.665
3.447
3.252
3.113
3.047
3.052
3.111
3.194
3.29
3.397
3.512
3.644
3.794
3.973
4.192
4.462
4.78
5.125
5.473
5.805
6.118
6.425
6.755
7.145
7.622
8.211
8.932
9.796
10.812
11.982
13.302
14.767
16.376
18.141
20.068
22.166
24.428
26.844
29.392
32.047
34.784
37.578
40.406
43.25
46.093
48.922
51.729
54.507
57.245
59.931
62.553
65.097
67.552
69.91
72.161
74.301
76.324
78.226
80.002
81.648
83.158
84.527
85.747
86.812
87.718
88.458
89.029
89.429
89.658
89.714
89.598
89.311
88.856
88.235
87.45
86.506
85.406
84.155
82.757
81.218
79.543
77.738
75.809
73.761
71.601
69.334
66.969
64.51
61.965
59.341
56.643
53.881
51.059
48.186
45.269
42.315
39.331
36.325
33.302
30.272
27.24
24.212
21.196
18.196
15.218
12.268
9.35
6.468
3.627
0.83
-1.918
-4.615
-7.256
-9.838
-12.359
-14.816
-17.205
-19.524
-21.771
-23.943
-26.037
-28.053
-29.988
-31.839
-33.606
-35.287
-36.88
-38.384
-39.798
-41.122
-42.355
-43.496
-44.546
-45.504
-46.371
-47.147
-47.832
-48.428
-48.933
-49.349
-49.677
-49.917
-50.071
-50.139
-50.122
-50.022
-49.841
-49.58
-49.241
-48.827
-48.339
-47.781
-47.154
-46.463
-45.711
-44.9
-44.036
-43.121
-42.161
-41.159
-40.12
-39.049
-37.951
-36.83
-35.692
-34.54
-33.382
-32.22
-31.061
-29.91
-28.772
-27.652
-26.554
-25.485
-24.449
-23.451
-22.497
-21.59
-20.737
-19.941
-19.208
-18.541
-17.946
-17.426
-16.984
-16.625
-16.351
-16.166
-16.071
-16.07
-16.164
-16.354
-16.641
-17.026
-17.508
-18.088
-18.764
-19.535
-20.4
-21.357
-22.404
-23.537
-24.755
-26.053
-27.429
-28.877
-30.395
-31.978
-33.62
-35.317
-37.062
-38.852
-40.678
-42.536
-44.418
-46.318
-48.229
-50.145
-52.058
-53.961
-55.847
-57.708
-59.539
-61.333
-63.082
-64.781
-66.425
-68.006
-69.522
-70.966
-72.334
-73.623
-74.829
-75.949
-76.981
-77.921
-78.769
-79.523
-80.182
-80.745
-81.214
-81.588
-81.869
-82.058
-82.158
-82.171
-82.101
-81.951
-81.725
-81.429
-81.068
-80.647
-80.172
-79.65
-79.087
-78.489
-77.864
-77.218
-76.558
-75.891
-75.222
-74.557
-73.904
-73.267
-72.652
-72.064
-71.508
-70.987
-70.507
-70.069
-69.678
-69.336
-69.045
-68.807
-68.622
-68.492
-68.415
-68.393
-68.423
-68.504
-68.633
-68.809
-69.027
-69.283
-69.574
-69.895
-70.241
-70.606
-70.986
-71.374
-71.766
-72.155
-72.537
-72.905
-73.255
-73.581
-73.879
-74.145
-74.374
-74.562
-74.706
-74.804
-74.852
-74.848
-74.791
-74.679
-74.511
-74.287
-74.006
-73.67
-73.279
-72.834
-72.338
-71.793
-71.201
-70.566
-69.89
-69.178
-68.433
-67.66
-66.861
-66.042
-65.207
-64.36
-63.505
-62.646
-61.786
-60.931
-60.082
-59.242
-58.415
-57.602
-56.806
-56.027
-55.268
-54.529
-53.811
-53.114
-52.438
-51.782
-51.146
-50.528
-49.926
-49.339
-48.764
-48.198
-47.639
-47.083
-46.53
-45.975
-45.416
-44.85
-44.274
-43.685
-43.081
-42.459
-41.816
-41.149
-40.457
-39.738
-38.991
-38.217
-37.413
-36.581
-35.721
-34.833
-33.92
-32.983
-32.022
-31.042
-30.044
-29.032
-28.01
-26.982
-25.953
-24.93
-23.918
-22.923
-21.951
-21.007
-20.096
-19.222
-18.389
-17.599
-16.855
-16.159
-15.515
-14.928
-14.402
-13.94
-13.544
-13.214
-12.95
-12.75
-12.611
-12.524
-12.485
-12.488
-12.536
-12.632
-12.777
-12.969
-13.202
-13.467
-13.75
-14.041
-14.318
-14.556
-14.735
-14.84
-14.871
-14.835
-14.734
-14.563
-14.31
-13.957
-13.498
-12.943
-12.289
-11.541
-10.723
-9.86
-9.014
-8.254
-7.622
-7.154
-6.866
-6.769
-6.895
-7.29
-7.976
-8.988
-10.351
-12.01
-13.88
-15.824
-17.614
-19.034
-19.894
-20.006
-19.227
-17.651
-15.58
-13.396
-11.545
-10.353
-9.954
-10.432
-11.891
-14.026
-16.102
-17.419
-17.266
-15.091
-10.688
-3.733
6.289
19.265
34.675
52.273
71.631
92.172
112.445
129.409
139.989
142.791
139.637
133.614
126.215
115.597
93.455
51.012
-17.514
-113.492
-225.551
-338.031
-434.157
-497.375
-525.931
-524.077
-499.464
-464.708
-422.776
-376.184
-329.643
-283.582
-243.561
-211.968
-185.005
-161.562
-138.309
-113.982
-92.191
-74.403
-61.753
-54.426
-49.876
-46.124
-42.016
-36.874
-30.979
-24.685
-17.995
-10.972
-3.864
2.795
8.309
12.308
14.786
15.946
16.089
15.491
14.419
13.255
12.433
12.235
12.789
14.107
16.109
18.732
21.935
25.638
29.738
34.14
38.753
43.507
48.341
53.169
57.89
62.4
66.62
70.501
74.019
77.166
79.946
82.372
84.47
86.276
87.827
89.155
90.294
91.273
92.128
92.9
93.63
94.364
95.135
95.968
96.878
97.877
98.969
100.159
101.443
102.813
104.266
105.798
107.409
109.098
110.863
112.7
114.604
116.569
118.591
120.663
122.783
124.944
127.143
129.374
131.633
133.917
136.221
138.539
140.864
143.189
145.508
147.812
150.097
152.355
154.58
156.765
158.907
160.999
163.037
165.017
166.932
168.78
170.555
172.254
173.87
175.401
176.841
178.185
179.431
180.573
181.607
182.529
183.337
184.026
184.594
185.038
185.356
185.544
185.6
185.523
185.311
184.96
184.47
183.838
183.063
182.143
181.077
179.862
178.497
176.982
175.314
173.493
171.52
169.394
167.115
164.686
162.109
159.387
156.523
153.522
150.389
147.129
143.749
140.256
136.656
132.958
129.17
125.3
121.358
117.352
113.292
109.189
105.052
100.892
96.72
92.546
88.382
84.238
80.127
76.059
72.045
68.097
64.226
60.441
56.754
53.174
49.709
46.37
43.162
40.093
37.169
34.394
31.773
29.31
27.006
24.864
22.884
21.067
19.413
17.919
16.585
15.408
14.386
13.513
12.787
12.203
11.755
11.439
11.248
11.176
11.217
11.362
11.605
11.938
12.353
12.843
13.398
14.012
14.677
15.384
16.127
16.899
17.694
18.505
19.327
20.155
20.984
21.809
22.626
23.433
24.225
25.001
25.756
26.489
27.198
27.88
28.535
29.161
29.755
30.319
30.849
31.346
31.809
32.238
32.633
32.994
33.322
33.616
33.878
34.107
34.306
34.473
34.61
34.717
34.794
34.842
34.86
34.848
34.806
34.734
34.632
34.497
34.331
34.131
33.898
33.631
33.328
32.99
32.616
32.207
31.761
31.28
30.763
30.21
29.623
29.001
28.345
27.656
26.935
26.181
25.396
24.581
23.737
22.864
21.966
21.041
20.093
19.122
18.131
17.12
16.093
15.052
13.998
12.934
11.863
10.788
9.712
8.636
7.564
6.497
5.439
4.391
3.356
2.335
1.329
0.341
-0.627
-1.575
-2.502
-3.406
-4.286
-5.141
-5.971
-6.775
-7.552
-8.303
-9.026
-9.721
-10.389
-11.028
-11.639
-12.222
-12.777
-13.304
-13.805
-14.279
-14.728
-15.153
-15.555
-15.935
-16.294
-16.634
-16.955
-17.259
-17.547
-17.82
-18.079
-18.324
-18.558
-18.781
-18.995
-19.2
-19.398
-19.59
-19.776
-19.958
-20.137
-20.314
-20.491
-20.67
-20.852
-21.039
-21.233
-21.436
-21.65
-21.877
-22.119
-22.377
-22.654
-22.95
-23.267
-23.607
-23.972
-24.362
-24.779
-25.226
-25.702
-26.21
-26.749
-27.322
-27.929
-28.57
-29.245
-29.955
-30.699
-31.477
-32.289
-33.133
-34.009
-34.914
-35.846
-36.802
-37.78
-38.774
-39.78
-40.794
-41.809
-42.821
-43.825
-44.813
-45.781
-46.722
-47.63
-48.498
-49.32
-50.09
-50.799
-51.441
-52.009
-52.496
-52.896
-53.202
-53.408
-53.509
-53.5
-53.374
-53.128
-52.757
-52.257
-51.625
-50.858
-49.954
-48.913
-47.736
-46.424
-44.979
-43.407
-41.713
-39.902
-37.981
-35.956
-33.835
-31.627
-29.339
-26.978
-24.554
-22.076
-19.556
-17.006
-14.441
-11.874
-9.319
-6.794
-4.312
-1.889
0.462
2.727
4.897
6.958
8.896
10.697
12.342
13.819
15.117
16.228
17.149
17.881
18.429
18.808
19.035
19.118
19.068
18.887
18.568
18.11
17.513
16.773
15.901
14.902
13.778
12.534
11.171
9.681
8.053
6.256
4.254
2.029
-0.428
-3.106
-5.968
-8.981
-12.105
-15.288
-18.489
-21.662
-24.75
-27.711
-30.505
-33.08
-35.384
-37.338
-38.855
-39.872
-40.351
-40.28
-39.675
-38.564
-36.988
-35.017
-32.739
-30.245
-27.636
-25.02
-22.504
-20.128
-17.889
-15.737
-13.559
-11.303
-8.956
-6.396
-3.509
-0.368
2.799
5.507
7.172
7.578
6.716
4.504
0.955
-3.762
-9.145
-14.064
-17.344
-18.469
-17.2
-13.319
-6.57
3.424
16.535
31.89
48.759
66.984
86.461
105.888
122.505
133.704
138.086
137.528
135.332
130.928
120.852
98.378
55.759
-8.356
-91.808
-190.13
-293.425
-393.003
-479.065
-538.188
-564.82
-557.183
-517.48
-459.048
-392.707
-328.458
-277.656
-241.132
-217.257
-202.129
-186.22
-165.895
-141.026
-113.203
-88.296
-69.01
-55.056
-45.717
-38.648
-32.654
-28.015
-24.603
-22.13
-20.389
-18.984
-17.669
-16.512
-15.466
-14.399
-13.42
-12.804
-12.638
-12.876
-13.377
-13.888
-14.249
-14.395
-14.178
-13.374
-11.86
-9.613
-6.685
-3.212
0.684
4.925
9.406
13.993
18.56
22.979
27.135
30.969
34.439
37.507
40.156
42.374
44.157
45.534
46.545
47.228
47.626
47.777
47.715
47.488
47.143
46.731
46.304
45.899
45.546
45.267
45.083
45.009
45.058
45.236
45.539
45.97
46.532
47.229
48.067
49.048
50.171
51.436
52.841
54.385
56.068
57.887
59.84
61.924
64.135
66.47
68.925
71.495
74.171
76.944
79.804
82.739
85.737
88.786
91.873
94.984
98.106
101.224
104.325
107.395
110.419
113.384
116.275
119.08
121.783
124.373
126.837
129.164
131.341
133.359
135.208
136.88
138.368
139.664
140.764
141.664
142.361
142.853
143.14
143.221
143.098
142.772
142.248
141.528
140.618
139.521
138.245
136.796
135.182
133.411
131.491
129.431
127.241
124.931
122.509
119.986
117.372
114.676
111.908
109.078
106.195
103.268
100.307
97.319
94.312
91.293
88.268
85.242
82.22
79.206
76.203
73.214
70.242
67.289
64.357
61.449
58.567
55.711
52.884
50.086
47.316
44.575
41.862
39.173
36.508
33.865
31.242
28.638
26.055
23.492
20.953
18.44
15.954
13.498
11.074
8.683
6.326
4.005
1.722
-0.52
-2.714
-4.849
-6.919
-8.918
-10.845
-12.699
-14.486
-16.215
-17.897
-19.542
-21.158
-22.745
-24.299
-25.804
-27.246
-28.609
-29.884
-31.07
-32.166
-33.169
-34.071
-34.861
-35.52
-36.021
-36.333
-36.418
-36.25
-35.822
-35.14
-34.236
-33.149
-31.929
-30.616
-29.237
-27.821
-26.39
-24.971
-23.589
-22.282
-21.095
-20.08
-19.304
-18.817
-18.651
-18.812
-19.281
-20.02
-20.975
-22.098
-23.354
-24.712
-26.148
-27.643
-29.176
-30.725
-32.263
-33.751
-35.137
-36.379
-37.446
-38.326
-39.026
-39.57
-39.996
-40.338
-40.623
-40.873
-41.1
-41.312
-41.512
-41.702
-41.884
-42.064
-42.261
-42.49
-42.764
-43.09
-43.462
-43.871
-44.301
-44.735
-45.162
-45.57
-45.956
-46.318
-46.66
-46.987
-47.307
-47.627
-47.948
-48.274
-48.605
-48.941
-49.288
-49.649
-50.029
-50.434
-50.87
-51.34
-51.849
-52.398
-52.988
-53.62
-54.29
-54.997
-55.741
-56.518
-57.329
-58.173
-59.047
-59.952
-60.885
-61.846
-62.831
-63.838
-64.864
-65.905
-66.959
-68.021
-69.087
-70.153
-71.217
-72.273
-73.318
-74.348
-75.361
-76.352
-77.32
-78.26
-79.171
-80.049
-80.893
-81.7
-82.468
-83.195
-83.88
-84.52
-85.115
-85.663
-86.162
-86.612
-87.011
-87.359
-87.653
-87.893
-88.079
-88.21
-88.284
-88.303
-88.265
-88.172
-88.022
-87.818
-87.558
-87.245
-86.877
-86.456
-85.982
-85.457
-84.88
-84.253
-83.577
-82.853
-82.082
-81.266
-80.407
-79.507
-78.567
-77.592
-76.582
-75.541
-74.472
-73.379
-72.264
-71.132
-69.986
-68.829
-67.667
-66.501
-65.338
-64.179
-63.03
-61.893
-60.773
-59.673
-58.595
-57.545
-56.524
-55.535
-54.581
-53.665
-52.789
-51.954
-51.162
-50.413
-49.709
-49.049
-48.432
-47.858
-47.324
-46.83
-46.372
-45.947
-45.552
-45.183
-44.835
-44.503
-44.182
-43.866
-43.55
-43.228
-42.893
-42.539
-42.161
-41.751
-41.305
-40.815
-40.275
-39.68
-39.024
-38.301
-37.507
-36.636
-35.684
-34.648
-33.524
-32.312
-31.008
-29.611
-28.122
-26.541
-24.869
-23.107
-21.259
-19.326
-17.314
-15.228
-13.075
-10.86
-8.591
-6.276
-3.924
-1.543
0.856
3.264
5.672
8.068
10.442
12.783
15.08
17.321
19.497
21.594
23.602
25.509
27.305
28.981
30.527
31.936
33.201
34.316
35.277
36.083
36.728
37.212
37.53
37.682
37.669
37.492
37.154
36.662
36.022
35.246
34.346
33.337
32.226
31.022
29.73
28.353
26.905
25.396
23.836
22.246
20.645
19.058
17.521
16.055
14.671
13.374
12.163
11.038
10.013
9.097
8.298
7.631
7.101
6.721
6.5
6.414
6.423
6.471
6.49
6.45
6.342
6.144
5.848
5.428
4.849
4.12
3.237
2.149
0.865
-0.574
-2.052
-3.278
-3.982
-3.961
-2.965
-0.851
2.318
6.38
10.87
15.042
18.306
20.126
19.982
17.758
13.661
8.141
2.265
-2.571
-5.095
-3.914
2.235
14.012
31.657
54.928
82.634
112.913
143.454
171.4
193.587
206.986
208.851
196.576
169.544
129.453
78.096
17.826
-51.535
-133.231
-225.687
-322.664
-411.522
-474.061
-500.805
-491.551
-454.57
-406.101
-356.357
-308.94
-264.334
-219.217
-173.657
-131.361
-95.474
-68.629
-51.448
-42.353
-39.155
-39.577
-41.381
-42.376
-41.141
-37.104
-30.118
-20.607
-9.377
2.756
14.775
25.47
34.13
40.52
44.624
46.76
47.333
46.671
45.241
43.612
42.162
41.135
40.665
40.724
41.288
42.369
43.921
45.879
48.188
50.778
53.587
56.579
59.695
62.877
66.058
69.151
72.073
74.745
77.113
79.147
80.832
82.161
83.136
83.773
84.096
84.149
83.971
83.6
83.071
82.416
81.674
80.887
80.097
79.345
78.664
78.073
77.592
77.236
77.016
76.939
77.01
77.223
77.578
78.075
78.716
79.5
80.428
81.494
82.696
84.029
85.489
87.073
88.775
90.592
92.517
94.544
96.669
98.884
101.184
103.56
106.004
108.505
111.055
113.646
116.267
118.91
121.565
124.221
126.869
129.499
132.101
134.663
137.175
139.626
142.007
144.308
146.519
148.635
150.646
152.546
154.33
155.99
157.519
158.91
160.155
161.245
162.174
162.933
163.517
163.919
164.135
164.162
164
163.647
163.1
162.353
161.398
160.23
158.85
157.258
155.458
153.458
151.271
148.92
146.432
143.823
141.106
138.285
135.356
132.318
129.169
125.902
122.523
119.03
115.424
111.714
107.906
103.994
99.963
95.772
91.377
86.758
81.906
76.826
71.545
66.087
60.498
54.85
49.201
43.605
38.11
32.734
27.502
22.456
17.648
13.161
9.086
5.472
2.364
-0.2
-2.214
-3.671
-4.61
-5.127
-5.301
-5.198
-4.869
-4.33
-3.603
-2.73
-1.758
-0.751
0.222
1.118
1.892
2.487
2.87
3.01
2.923
2.687
2.368
2.01
1.644
1.27
0.892
0.534
0.207
-0.082
-0.318
-0.501
-0.62
-0.642
-0.549
-0.322
0.024
0.436
0.868
1.291
1.679
2.025
2.317
2.535
2.671
2.732
2.724
2.653
2.515
2.296
1.982
1.566
1.049
0.45
-0.22
-0.951
-1.734
-2.563
-3.431
-4.323
-5.238
-6.178
-7.147
-8.146
-9.173
-10.222
-11.286
-12.361
-13.444
-14.532
-15.622
-16.712
-17.799
-18.882
-19.96
-21.034
-22.103
-23.162
-24.211
-25.246
-26.267
-27.274
-28.265
-29.24
-30.198
-31.14
-32.067
-32.979
-33.878
-34.764
-35.638
-36.5
-37.351
-38.192
-39.023
-39.844
-40.658
-41.464
-42.264
-43.057
-43.846
-44.63
-45.411
-46.189
-46.965
-47.738
-48.51
-49.279
-50.046
-50.811
-51.573
-52.331
-53.086
-53.835
-54.579
-55.315
-56.043
-56.762
-57.469
-58.162
-58.842
-59.505
-60.15
-60.776
-61.381
-61.963
-62.522
-63.055
-63.562
-64.042
-64.493
-64.915
-65.307
-65.669
-65.999
-66.297
-66.563
-66.796
-66.997
-67.163
-67.297
-67.396
-67.462
-67.493
-67.491
-67.456
-67.387
-67.286
-67.154
-66.991
-66.797
-66.574
-66.321
-66.041
-65.733
-65.399
-65.038
-64.651
-64.24
-63.803
-63.343
-62.859
-62.352
-61.821
-61.267
-60.691
-60.092
-59.471
-58.829
-58.167
-57.485
-56.787
-56.072
-55.344
-54.603
-53.854
-53.097
-52.337
-51.574
-50.809
-50.046
-49.286
-48.531
-47.784
-47.045
-46.318
-45.606
-44.913
-44.242
-43.597
-42.981
-42.395
-41.843
-41.327
-40.851
-40.417
-40.022
-39.67
-39.364
-39.11
-38.913
-38.771
-38.677
-38.625
-38.611
-38.628
-38.672
-38.734
-38.798
-38.861
-38.926
-38.998
-39.083
-39.18
-39.274
-39.358
-39.419
-39.455
-39.477
-39.487
-39.478
-39.453
-39.418
-39.384
-39.371
-39.376
-39.367
-39.317
-39.198
-38.995
-38.712
-38.346
-37.887
-37.326
-36.646
-35.837
-34.906
-33.844
-32.63
-31.243
-29.65
-27.854
-25.896
-23.808
-21.619
-19.352
-17.009
-14.607
-12.171
-9.719
-7.267
-4.827
-2.399
-0.004
2.328
4.563
6.663
8.615
10.434
12.127
13.697
15.145
16.46
17.642
18.701
19.635
20.436
21.099
21.614
21.982
22.214
22.32
22.313
22.195
21.957
21.591
21.097
20.473
19.722
18.847
17.844
16.716
15.472
14.116
12.658
11.108
9.469
7.749
5.962
4.124
2.261
0.406
-1.416
-3.181
-4.869
-6.463
-7.944
-9.292
-10.499
-11.556
-12.463
-13.224
-13.843
-14.326
-14.701
-15.007
-15.292
-15.622
-16.048
-16.612
-17.371
-18.371
-19.662
-21.29
-23.276
-25.63
-28.36
-31.467
-34.943
-38.774
-42.893
-47.2
-51.597
-55.964
-60.198
-64.21
-67.865
-71.024
-73.552
-75.306
-76.175
-76.081
-74.911
-72.523
-68.845
-63.889
-57.81
-50.965
-43.741
-36.453
-29.442
-23.114
-17.771
-13.528
-10.178
-7.054
-3.289
1.75
8.466
17.402
28.801
42.207
56.747
69.849
77.396
77.109
67.48
49.03
26.298
-0.723
-35.269
-82.782
-153.9
-248.932
-357.369
-463.086
-542.319
-583.088
-588.446
-566.853
-533.88
-498.207
-457.885
-412.73
-362.741
-310.936
-265.889
-230.714
-203.251
-180.962
-158.935
-135.748
-114.58
-97.058
-84.583
-77.085
-71.818
-67.088
-62.046
-56.204
-49.999
-43.711
-37.209
-30.624
-24.3
-18.641
-14.226
-11.327
-9.832
-9.579
-10.338
-11.839
-13.837
-15.994
-17.872
-19.208
-19.899
-19.913
-19.331
-18.214
-16.583
-14.513
-12.105
-9.446
-6.623
-3.699
-0.714
2.266
5.163
7.898
10.384
12.57
14.435
15.97
17.191
18.12
18.779
19.207
19.45
19.549
19.549
19.488
19.398
19.319
19.293
19.364
19.578
19.967
20.552
21.35
22.368
23.609
25.076
26.764
28.661
30.761
33.056
35.539
38.205
41.046
44.051
47.207
50.501
53.92
57.451
61.081
64.797
68.583
72.427
76.314
80.231
84.163
88.095
92.009
95.888
99.716
103.475
107.151
110.726
114.186
117.516
120.705
123.739
126.61
129.306
131.82
134.145
136.275
138.205
139.932
141.455
142.771
143.882
144.789
145.494
145.999
146.311
146.433
146.371
146.133
145.725
145.157
144.436
143.573
142.577
141.459
140.229
138.898
137.476
135.975
134.405
132.776
131.099
129.383
127.636
125.867
124.084
122.293
120.501
118.712
116.931
115.161
113.405
111.664
109.939
108.231
106.539
104.863
103.202
101.553
99.915
98.285
96.659
95.036
93.41
91.778
90.137
88.482
86.81
85.116
83.398
81.652
79.875
78.064
76.218
74.333
72.409
70.446
68.442
66.398
64.317
62.199
60.049
57.869
55.665
53.441
51.204
48.959
46.714
44.474
42.248
40.042
37.865
35.724
33.628
31.584
29.599
27.683
25.842
24.083
22.412
20.837
19.362
17.993
16.734
15.59
14.563
13.656
12.872
12.213
11.678
11.268
10.982
10.817
10.771
10.84
11.02
11.306
11.692
12.172
12.74
13.388
14.11
14.896
15.74
16.634
17.568
18.535
19.526
20.533
21.548
22.564
23.573
24.569
25.545
26.494
27.412
28.293
29.131
29.923
30.663
31.35
31.978
32.548
33.055
33.5
33.882
34.201
34.457
34.652
34.786
34.862
34.881
34.846
34.76
34.626
34.446
34.225
33.967
33.673
33.35
32.999
32.624
32.228
31.815
31.386
30.946
30.496
30.039
29.577
29.111
28.644
28.178
27.714
27.252
26.793
26.339
25.888
25.441
24.997
24.556
24.116
23.676
23.235
22.791
22.343
21.887
21.422
20.945
20.454
19.947
19.42
18.872
18.3
17.701
17.075
16.418
15.729
15.006
14.249
13.455
12.625
11.756
10.849
9.903
8.917
7.892
6.828
5.727
4.588
3.414
2.206
0.966
-0.302
-1.596
-2.912
-4.248
-5.598
-6.959
-8.327
-9.696
-11.061
-12.418
-13.762
-15.086
-16.385
-17.654
-18.888
-20.081
-21.229
-22.328
-23.372
-24.358
-25.282
-26.141
-26.93
-27.647
-28.288
-28.85
-29.33
-29.727
-30.038
-30.263
-30.401
-30.452
-30.417
-30.298
-30.095
-29.811
-29.447
-29.007
-28.493
-27.909
-27.257
-26.542
-25.768
-24.94
-24.064
-23.142
-22.181
-21.185
-20.157
-19.1
-18.019
-16.913
-15.784
-14.636
-13.47
-12.288
-11.093
-9.888
-8.674
-7.458
-6.241
-5.024
-3.806
-2.586
-1.362
-0.13
1.112
2.37
3.646
4.945
6.267
7.61
8.974
10.362
11.778
13.23
14.722
16.253
17.823
19.433
21.078
22.75
24.432
26.094
27.715
29.284
30.794
32.245
33.637
34.967
36.237
37.451
38.617
39.743
40.832
41.875
42.876
43.849
44.826
45.859
46.978
48.198
49.524
50.954
52.488
54.114
55.793
57.47
59.085
60.584
61.925
63.081
64.004
64.639
64.91
64.728
64.036
62.79
60.955
58.495
55.376
51.587
47.167
42.19
36.735
30.883
24.707
18.28
11.704
5.084
-1.466
-7.82
-13.886
-19.582
-24.819
-29.513
-33.57
-36.919
-39.541
-41.453
-42.683
-43.28
-43.302
-42.815
-41.926
-40.744
-39.369
-37.921
-36.504
-35.217
-34.168
-33.465
-33.2
-33.484
-34.419
-35.994
-38.132
-40.666
-43.301
-45.795
-47.959
-49.522
-50.258
-50.173
-49.414
-48.366
-47.687
-47.797
-48.951
-51.496
-55.477
-60.527
-66.066
-71.078
-74.251
-74.669
-71.455
-63.567
-50.561
-32.492
-9.825
16.283
44.47
73.47
101.369
125.653
144.16
154.741
155.512
145.149
122.004
85.787
38.575
-17.216
-79.035
-146.854
-223.691
-308.591
-396.352
-476.263
-532.726
-557.672
-550.857
-519.069
-476.299
-431.867
-389.579
-349.86
-309.365
-267.371
-226.294
-189.321
-159.573
-137.818
-122.947
-113.454
-107.558
-103.982
-101.513
-98.362
-93.446
-86.458
-77.406
-66.834
-55.43
-43.629
-32.114
-21.904
-13.544
-7.211
-2.905
-0.253
1.097
1.355
0.888
0.16
-0.549
-1.068
-1.32
-1.378
-1.269
-0.955
-0.45
0.227
1.074
2.078
3.239
4.561
6.025
7.589
9.215
10.862
12.5
14.133
15.76
17.392
19.05
20.735
22.439
24.153
25.845
27.474
29.023
30.48
31.846
33.141
34.376
35.561
36.712
37.831
38.916
39.959
40.935
41.832
42.657
43.423
44.168
44.941
45.775
46.697
47.73
48.884
50.165
51.583
53.132
54.807
56.61
58.545
60.629
62.875
65.282
67.841
70.538
73.344
76.241
79.21
82.229
85.284
88.36
91.446
94.536
97.629
100.716
103.786
106.827
109.823
112.761
115.631
118.423
121.129
123.741
126.25
128.651
130.939
133.106
135.143
137.043
138.796
140.394
141.83
143.097
144.192
145.109
145.844
146.396
146.762
146.94
146.929
146.728
146.334
145.748
144.969
143.998
142.836
141.485
139.947
138.225
136.325
134.249
132.005
129.596
127.031
124.315
121.455
118.46
115.337
112.094
108.74
105.285
101.736
98.104
94.397
90.626
86.801
82.93
79.024
75.093
71.146
67.194
63.248
59.317
55.411
51.542
47.72
43.954
40.254
36.631
33.094
29.65
26.309
23.078
19.965
16.975
14.117
11.394
8.813
6.377
4.091
1.958
-0.019
-1.838
-3.498
-4.998
-6.336
-7.514
-8.531
-9.389
-10.09
-10.637
-11.032
-11.28
-11.385
-11.352
-11.187
-10.897
-10.487
-9.966
-9.34
-8.617
-7.806
-6.915
-5.953
-4.928
-3.849
-2.725
-1.564
-0.375
0.834
2.055
3.28
4.5
5.71
6.902
8.068
9.204
10.304
11.361
12.371
13.33
14.234
15.079
15.862
16.582
17.237
17.825
18.346
18.799
19.186
19.507
19.763
19.956
20.089
20.163
20.182
20.148
20.065
19.936
19.765
19.556
19.312
19.036
18.733
18.405
18.056
17.688
17.305
16.907
16.499
16.081
15.654
15.221
14.781
14.336
13.886
13.431
12.97
12.504
12.031
11.551
11.063
10.566
10.058
9.537
9.003
8.454
7.888
7.304
6.7
6.074
5.425
4.751
4.052
3.327
2.574
1.794
0.986
0.152
-0.708
-1.593
-2.499
-3.426
-4.37
-5.328
-6.296
-7.272
-8.25
-9.227
-10.198
-11.159
-12.106
-13.032
-13.935
-14.808
-15.649
-16.452
-17.215
-17.931
-18.599
-19.214
-19.774
-20.275
-20.714
-21.09
-21.399
-21.641
-21.814
-21.918
-21.953
-21.919
-21.818
-21.652
-21.424
-21.137
-20.794
-20.4
-19.961
-19.48
-18.965
-18.421
-17.854
-17.271
-16.679
-16.085
-15.494
-14.915
-14.352
-13.812
-13.301
-12.825
-12.388
-11.996
-11.654
-11.365
-11.135
-10.967
-10.864
-10.829
-10.865
-10.974
-11.156
-11.413
-11.744
-12.148
-12.625
-13.172
-13.786
-14.464
-15.202
-15.996
-16.84
-17.728
-18.655
-19.615
-20.599
-21.603
-22.618
-23.638
-24.656
-25.665
-26.659
-27.632
-28.576
-29.487
-30.358
-31.184
-31.959
-32.677
-33.335
-33.926
-34.446
-34.89
-35.256
-35.538
-35.735
-35.843
-35.86
-35.786
-35.617
-35.355
-35
-34.551
-34.01
-33.379
-32.66
-31.857
-30.972
-30.01
-28.974
-27.869
-26.701
-25.473
-24.191
-22.86
-21.487
-20.075
-18.632
-17.162
-15.672
-14.169
-12.659
-11.151
-9.651
-8.167
-6.707
-5.28
-3.893
-2.557
-1.277
-0.064
1.074
2.131
3.096
3.963
4.724
5.372
5.899
6.3
6.565
6.691
6.671
6.503
6.181
5.705
5.072
4.284
3.339
2.239
0.984
-0.425
-1.986
-3.696
-5.551
-7.544
-9.665
-11.902
-14.246
-16.682
-19.197
-21.778
-24.415
-27.099
-29.824
-32.583
-35.362
-38.144
-40.909
-43.633
-46.295
-48.872
-51.345
-53.698
-55.919
-57.999
-59.928
-61.7
-63.307
-64.735
-65.956
-66.95
-67.707
-68.238
-68.565
-68.723
-68.742
-68.645
-68.461
-68.225
-67.978
-67.757
-67.601
-67.52
-67.52
-67.65
-67.915
-68.271
-68.624
-68.764
-68.473
-67.598
-66.009
-63.602
-60.48
-56.86
-53.005
-49.37
-46.347
-44.219
-43.265
-43.571
-44.765
-46.238
-47.395
-47.484
-45.868
-41.882
-34.694
-23.708
-8.938
9.138
29.969
52.771
76.544
99.658
119.787
134.583
141.887
139.784
126.45
100.274
61.243
11.718
-45.35
-107.738
-176.001
-252.252
-334.688
-416.033
-483.219
-522.974
-530.377
-509.34
-470.46
-425.855
-380.872
-335.212
-288.977
-241.948
-197.782
-163.002
-137.895
-121.069
-109.987
-100.098
-91.43
-84.738
-79.327
-74.86
-69.64
-62.482
-53.656
-43.661
-33.349
-23.371
-14.204
-6.645
-1.181
2.056
3.119
2.406
0.304
-2.956
-7.036
-11.507
-16.056
-20.42
-24.406
-27.989
-31.134
-33.782
-35.936
-37.587
-38.711
-39.328
-39.457
-39.104
-38.296
-37.038
-35.318
-33.161
-30.605
-27.709
-24.562
-21.219
-17.722
-14.122
-10.464
-6.807
-3.227
0.239
3.584
6.793
9.858
12.749
15.414
17.828
19.99
21.906
23.599
25.086
26.368
27.472
28.439
29.315
30.161
31.012
31.882
32.788
33.746
34.777
35.913
37.172
38.555
40.065
41.704
43.472
45.376
47.409
49.549
51.775
54.061
56.39
58.753
61.142
63.549
65.964
68.38
70.793
73.204
75.612
78.011
80.395
82.758
85.096
87.408
89.694
91.952
94.18
96.374
98.53
100.643
102.709
104.719
106.667
108.543
110.338
112.047
113.662
115.177
116.586
117.882
119.06
120.114
121.04
121.831
122.482
122.988
123.343
123.544
123.586
123.466
123.18
122.727
122.103
121.308
120.34
119.199
117.883
116.394
114.732
112.898
110.894
108.723
106.387
103.891
101.239
98.437
95.49
92.404
89.186
85.845
82.387
78.821
75.156
71.401
67.565
63.658
59.691
55.674
51.617
47.533
43.43
39.32
35.215
31.125
27.06
23.031
19.049
15.124
11.266
7.486
3.793
0.197
-3.294
-6.671
-9.925
-13.048
-16.034
-18.875
-21.566
-24.101
-26.475
-28.684
-30.724
-32.593
-34.289
-35.81
-37.155
-38.325
-39.32
-40.141
-40.79
-41.269
-41.582
-41.731
-41.721
-41.557
-41.242
-40.784
-40.187
-39.46
-38.607
-37.638
-36.559
-35.379
-34.106
-32.748
-31.315
-29.814
-28.255
-26.647
-24.999
-23.319
-21.616
-19.898
-18.174
-16.452
-14.738
-13.041
-11.368
-9.724
-8.116
-6.55
-5.031
-3.565
-2.156
-0.809
0.473
1.687
2.829
3.898
4.893
5.811
6.652
7.416
8.103
8.714
9.251
9.714
10.106
10.429
10.686
10.879
11.012
11.089
11.112
11.085
11.012
10.896
10.741
10.551
10.33
10.08
9.807
9.512
9.2
8.874
8.538
8.195
7.847
7.498
7.15
6.804
6.464
6.13
5.804
5.487
5.181
4.884
4.599
4.325
4.061
3.808
3.563
3.328
3.1
2.879
2.662
2.449
2.239
2.03
1.821
1.611
1.397
1.179
0.955
0.723
0.483
0.232
-0.03
-0.306
-0.596
-0.901
-1.223
-1.562
-1.918
-2.293
-2.686
-3.098
-3.529
-3.979
-4.447
-4.933
-5.436
-5.955
-6.49
-7.039
-7.601
-8.174
-8.758
-9.351
-9.952
-10.559
-11.171
-11.787
-12.406
-13.026
-13.646
-14.266
-14.883
-15.497
-16.107
-16.713
-17.313
-17.907
-18.495
-19.076
-19.651
-20.218
-20.779
-21.333
-21.881
-22.423
-22.96
-23.492
-24.021
-24.548
-25.073
-25.599
-26.127
-26.657
-27.193
-27.735
-28.285
-28.844
-29.414
-29.997
-30.594
-31.206
-31.835
-32.482
-33.148
-33.833
-34.539
-35.265
-36.012
-36.78
-37.568
-38.376
-39.203
-40.049
-40.912
-41.792
-42.687
-43.595
-44.514
-45.443
-46.379
-47.319
-48.261
-49.201
-50.138
-51.067
-51.985
-52.889
-53.776
-54.641
-55.481
-56.292
-57.069
-57.81
-58.51
-59.165
-59.773
-60.33
-60.832
-61.278
-61.664
-61.988
-62.247
-62.441
-62.567
-62.623
-62.609
-62.524
-62.368
-62.14
-61.841
-61.471
-61.031
-60.522
-59.946
-59.303
-58.596
-57.826
-56.997
-56.111
-55.172
-54.183
-53.148
-52.073
-50.96
-49.816
-48.645
-47.453
-46.244
-45.023
-43.797
-42.572
-41.352
-40.145
-38.956
-37.79
-36.654
-35.555
-34.497
-33.486
-32.526
-31.624
-30.785
-30.014
-29.315
-28.693
-28.154
-27.703
-27.347
-27.089
-26.933
-26.883
-26.942
-27.11
-27.39
-27.778
-28.274
-28.874
-29.578
-30.385
-31.294
-32.299
-33.396
-34.579
-35.84
-37.175
-38.571
-40.016
-41.499
-43.012
-44.548
-46.112
-47.7
-49.306
-50.921
-52.533
-54.129
-55.698
-57.219
-58.665
-60.014
-61.246
-62.354
-63.342
-64.203
-64.927
-65.496
-65.89
-66.098
-66.122
-65.963
-65.633
-65.155
-64.559
-63.896
-63.223
-62.597
-62.074
-61.692
-61.488
-61.509
-61.778
-62.349
-63.298
-64.605
-66.2
-67.938
-69.543
-70.788
-71.507
-71.443
-70.395
-68.377
-65.518
-62.285
-59.433
-57.491
-56.895
-58.076
-61.108
-65.761
-71.545
-77.278
-81.42
-82.663
-79.638
-71.143
-56.578
-35.702
-8.822
22.697
56.858
91.375
123.409
149.895
167.871
174.392
166.936
144.82
109.173
61.604
3.744
-64.665
-144.846
-234.836
-327.638
-411.09
-472.703
-505.385
-510.301
-496.305
-472.552
-444.848
-415.115
-381.036
-341.641
-298.929
-255.747
-216.118
-183.145
-157.484
-138.687
-125.826
-117.641
-112.824
-110.328
-108.823
-106.61
-102.817
-97.213
-89.78
-80.999
-71.461
-61.544
-51.916
-43.517
-36.803
-31.899
-28.754
-26.988
-26.257
-26.331
-26.811
-27.21
-27.201
-26.577
-25.26
-23.317
-20.792
-17.69
-14.068
-9.996
-5.552
-0.822
4.125
9.241
14.474
19.747
24.97
30.045
34.876
39.402
43.585
47.404
50.847
53.911
56.601
58.936
60.947
62.668
64.124
65.344
66.352
67.179
67.863
68.443
68.961
69.447
69.92
70.399
70.897
71.426
71.994
72.605
73.258
73.954
74.7
75.499
76.36
77.286
78.282
79.349
80.491
81.71
83.01
84.394
85.864
87.423
89.073
90.816
92.654
94.587
96.616
98.736
100.945
103.239
105.611
108.057
110.57
113.142
115.767
118.436
121.142
123.877
126.632
129.398
132.166
134.926
137.668
140.383
143.062
145.693
148.268
150.776
153.209
155.556
157.808
159.958
161.997
163.916
165.708
167.367
168.886
170.26
171.484
172.553
173.466
174.219
174.811
175.24
175.508
175.614
175.56
175.347
174.979
174.458
173.788
172.973
172.019
170.93
169.712
168.371
166.914
165.347
163.677
161.912
160.058
158.123
156.115
154.04
151.908
149.724
147.497
145.233
142.94
140.625
138.293
135.95
133.602
131.254
128.911
126.576
124.254
121.948
119.66
117.394
115.151
112.934
110.743
108.58
106.447
104.342
102.268
100.225
98.213
96.232
94.284
92.367
90.484
88.633
86.816
85.032
83.281
81.565
79.883
78.236
76.624
75.047
73.507
72.004
70.538
69.112
67.725
66.38
65.076
63.817
62.602
61.433
60.313
59.241
58.22
57.251
56.336
55.474
54.667
53.915
53.218
52.577
51.991
51.459
50.979
50.552
50.175
49.846
49.564
49.326
49.13
48.974
48.856
48.771
48.718
48.694
48.695
48.719
48.762
48.821
48.893
48.974
49.062
49.152
49.242
49.328
49.407
49.475
49.531
49.57
49.591
49.591
49.567
49.519
49.444
49.341
49.209
49.047
48.855
48.631
48.377
48.091
47.774
47.426
47.047
46.636
46.195
45.724
45.223
44.691
44.131
43.542
42.924
42.279
41.607
40.908
40.184
39.435
38.663
37.868
37.051
36.214
35.358
34.484
33.594
32.689
31.77
30.84
29.9
28.951
27.996
27.037
26.076
25.114
24.156
23.202
22.258
21.325
20.408
19.509
18.633
17.783
16.964
16.18
15.434
14.732
14.078
13.475
12.929
12.444
12.024
11.673
11.395
11.193
11.071
11.032
11.078
11.212
11.435
11.75
12.157
12.657
13.249
13.935
14.713
15.581
16.538
17.58
18.706
19.911
21.191
22.541
23.958
25.434
26.965
28.545
30.167
31.824
33.51
35.216
36.937
38.663
40.388
42.104
43.804
45.481
47.127
48.736
50.303
51.821
53.285
54.691
56.033
57.308
58.514
59.646
60.705
61.688
62.595
63.426
64.184
64.868
65.481
66.026
66.505
66.922
67.281
67.586
67.841
68.051
68.222
68.359
68.469
68.556
68.629
68.691
68.75
68.812
68.881
68.963
69.063
69.186
69.335
69.516
69.731
69.983
70.274
70.607
70.983
71.401
71.862
72.364
72.908
73.491
74.112
74.768
75.458
76.18
76.932
77.711
78.515
79.341
80.187
81.049
81.925
82.811
83.704
84.602
85.503
86.404
87.304
88.201
89.095
89.985
90.87
91.751
92.628
93.503
94.375
95.249
96.125
97.009
97.903
98.811
99.738
100.688
101.665
102.673
103.716
104.794
105.911
107.068
108.267
109.51
110.798
112.132
113.515
114.948
116.434
117.975
119.572
121.223
122.928
124.685
126.491
128.342
130.234
132.163
134.122
136.11
138.123
140.156
142.203
144.254
146.297
148.323
150.324
152.294
154.226
156.121
157.98
159.812
161.632
163.449
165.273
167.11
168.96
170.825
172.705
174.594
176.491
178.394
180.291
182.173
184.026
185.814
187.504
189.056
190.407
191.51
192.318
192.775
192.847
192.504
191.726
190.514
188.868
186.786
184.293
181.416
178.206
174.756
171.147
167.458
163.803
160.27
156.956
153.978
151.419
149.346
147.854
147.005
146.881
147.591
149.161
151.567
154.705
158.287
161.97
165.419
168.207
169.994
170.619
169.883
167.982
165.665
163.741
163.31
164.597
166.281
167.333
167.139
167.435
172.556
183.569
197.604
206.642
198.309
165.987
109.524
34.174
-48.902
-130.882
-204.934
-263.623
-303.283
-322.619
-323.523
-313.351
-298.668
-282.863
-266.793
-247.697
-223.546
-194.863
-163.983
-135.331
-112.389
-97.219
-88.757
-82.869
-78.965
-78.456
-86.862
-115.221
-167.671
-244.882
-344.532
-453.868
-562.009
-657.185
-724.33
-759.253
-763.284
-743.145
-712.894
-679.667
-643.149
-599.649
-543.119
-474.21
-403.783
-345.122
-308.283
-296.867
-301.318
-307.198
-305.006
-288.433
-261.891
-235.953
-216.483
-208.047
-209.845
-216.112
-223.904
-231.214
-237.318
-243.696
-250.453
-256.923
-262.557
-266.24
-267.473
-266.427
-263.223
-258.314
-252.493
-246.293
-240.226
-234.953
-230.751
-227.671
-225.734
-224.611
-223.765
-222.905
-221.791
-220.153
-217.963
-215.263
-212.11
-208.743
-205.446
-202.356
-199.566
-197.138
-195.046
-193.267
-191.775
-190.479
-189.289
-188.152
-187.039
-185.943
-184.861
-183.768
-182.634
-181.451
-180.223
-178.948
-177.607
-176.157
-174.557
-172.79
-170.855
-168.761
-166.507
-164.083
-161.466
-158.643
-155.61
-152.363
-148.891
-145.161
-141.138
-136.809
-132.199
-127.362
-122.348
-117.188
-111.903
-106.509
-101.033
-95.509
-89.967
-84.426
-78.9
-73.409
-67.987
-62.686
-57.558
-52.634
-47.914
-43.38
-39.014
-34.815
-30.784
-26.922
-23.222
-19.678
-16.291
-13.076
-10.046
-7.209
-4.558
-2.08
0.241
2.41
4.419
6.258
7.915
9.387
10.673
11.767
12.665
13.364
13.867
14.187
14.336
14.321
14.146
13.814
13.327
12.691
11.914
11.001
9.96
8.796
7.517
6.13
4.644
3.066
1.401
-0.348
-2.177
-4.082
-6.057
-8.099
-10.201
-12.36
-14.571
-16.828
-19.126
-21.459
-23.823
-26.215
-28.629
-31.062
-33.508
-35.964
-38.426
-40.888
-43.345
-45.793
-48.227
-50.64
-53.027
-55.382
-57.7
-59.973
-62.197
-64.364
-66.467
-68.502
-70.46
-72.336
-74.124
-75.816
-77.408
-78.894
-80.268
-81.525
-82.66
-83.67
-84.55
-85.296
-85.905
-86.373
-86.698
-86.878
-86.912
-86.797
-86.534
-86.123
-85.564
-84.859
-84.011
-83.021
-81.893
-80.632
-79.242
-77.727
-76.095
-74.352
-72.504
-70.559
-68.524
-66.409
-64.22
-61.966
-59.655
-57.296
-54.898
-52.47
-50.02
-47.557
-45.091
-42.629
-40.182
-37.758
-35.364
-33.01
-30.703
-28.45
-26.258
-24.134
-22.085
-20.114
-18.229
-16.432
-14.727
-13.119
-11.609
-10.198
-8.888
-7.679
-6.572
-5.565
-4.657
-3.848
-3.134
-2.515
-1.988
-1.55
-1.197
-0.926
-0.734
-0.615
-0.565
-0.579
-0.652
-0.779
-0.953
-1.171
-1.426
-1.713
-2.027
-2.362
-2.713
-3.075
-3.443
-3.814
-4.183
-4.547
-4.903
-5.248
-5.581
-5.899
-6.202
-6.489
-6.757
-7.008
-7.24
-7.453
-7.647
-7.822
-7.979
-8.12
-8.244
-8.353
-8.449
-8.533
-8.607
-8.672
-8.731
-8.786
-8.837
-8.888
-8.94
-8.994
-9.053
-9.118
-9.189
-9.268
-9.355
-9.448
-9.549
-9.655
-9.765
-9.878
-9.992
-10.103
-10.211
-10.312
-10.405
-10.485
-10.551
-10.6
-10.628
-10.633
-10.611
-10.56
-10.476
-10.357
-10.201
-10.005
-9.766
-9.483
-9.155
-8.779
-8.354
-7.879
-7.355
-6.78
-6.156
-5.483
-4.763
-3.999
-3.193
-2.349
-1.47
-0.562
0.372
1.326
2.296
3.275
4.259
5.241
6.215
7.175
8.115
9.03
9.913
10.759
11.562
12.317
13.02
13.667
14.253
14.775
15.23
15.616
15.931
16.173
16.342
16.438
16.461
16.413
16.297
16.116
15.873
15.573
15.222
14.826
14.39
13.922
13.43
12.92
12.402
11.883
11.373
10.881
10.417
9.988
9.606
9.278
9.014
8.822
8.71
8.685
8.756
8.928
9.207
9.6
10.11
10.742
11.5
12.385
13.399
14.543
15.816
17.217
18.742
20.388
22.152
24.026
26.006
28.085
30.254
32.505
34.83
37.218
39.659
42.14
44.651
47.177
49.708
52.229
54.728
57.192
59.606
61.958
64.236
66.427
68.518
70.496
72.35
74.069
75.641
77.056
78.304
79.376
80.264
80.963
81.466
81.771
81.874
81.777
81.48
80.984
80.292
79.406
78.329
77.065
75.622
74.005
72.225
70.291
68.219
66.025
63.727
61.338
58.871
56.335
53.741
51.103
48.436
45.753
43.073
40.42
37.822
35.314
32.928
30.68
28.577
26.62
24.814
23.167
21.692
20.393
19.271
18.328
17.568
16.997
16.604
16.345
16.159
15.967
15.713
15.377
14.951
14.42
13.754
12.913
11.863
10.619
9.195
7.562
5.732
3.755
1.784
0.128
-0.894
-1.035
-0.147
1.84
4.808
8.531
12.653
16.554
19.584
21.183
21.034
19.157
15.959
12.079
8.26
5.54
5.171
8.457
16.31
29.074
46.646
68.428
93.498
120.577
146.653
168.282
183.556
190.001
187.412
176.048
152.192
115.219
64.595
-0.528
-75.521
-159.261
-250.2
-341.922
-427.883
-495.873
-534.534
-539.552
-511.888
-460.858
-397.212
-330.195
-268.465
-215.772
-174.982
-146.604
-126.578
-111.917
-99.315
-87.339
-78.042
-71.945
-68.705
-66.737
-63.173
-56.886
-47.91
-36.753
-24.57
-12.222
-0.404
9.863
17.93
23.634
27.014
28.418
28.281
26.933
24.799
22.427
20.222
18.451
17.272
16.682
16.674
17.272
18.454
20.17
22.375
24.995
27.967
31.244
34.757
38.434
42.193
45.929
49.538
52.926
56.021
58.784
61.193
63.233
64.903
66.213
67.189
67.871
68.301
68.516
68.555
68.45
68.244
67.986
67.723
67.499
67.35
67.298
67.363
67.557
67.892
68.372
68.998
69.764
70.666
71.705
72.88
74.192
75.639
77.216
78.92
80.744
82.685
84.738
86.899
89.162
91.523
93.976
96.516
99.138
101.836
104.601
107.424
110.296
113.207
116.148
119.11
122.082
125.054
128.017
130.963
133.883
136.769
139.612
142.405
145.139
147.807
150.401
152.914
155.338
157.667
159.894
162.012
164.015
165.896
167.65
169.271
170.755
172.097
173.293
174.339
175.232
175.97
176.549
176.968
177.224
177.317
177.244
177.004
176.598
176.024
175.283
174.375
173.3
172.059
170.654
169.087
167.359
165.473
163.433
161.242
158.904
156.424
153.808
151.061
148.191
145.204
142.108
138.909
135.617
132.239
128.783
125.258
121.673
118.037
114.358
110.647
106.913
103.165
99.413
95.667
91.936
88.23
84.558
80.929
77.351
73.834
70.385
67.011
63.721
60.521
57.418
54.416
51.521
48.737
46.068
43.516
41.083
38.771
36.581
34.514
32.569
30.747
29.046
27.466
26.005
24.66
23.429
22.309
21.297
20.388
19.578
18.863
18.238
17.698
17.238
16.853
16.538
16.288
16.096
15.958
15.869
15.822
15.815
15.842
15.899
15.982
16.089
16.216
16.361
16.521
16.695
16.881
17.076
17.279
17.489
17.704
17.922
18.144
18.367
18.591
18.816
19.039
19.261
19.482
19.699
19.913
20.122
20.327
20.526
20.719
20.905
21.084
21.254
21.414
21.563
21.699
21.82
21.924
22.008
22.068
22.102
22.105
22.075
22.008
21.899
21.746
21.545
21.291
20.982
20.614
20.184
19.69
19.129
18.499
17.798
17.025
16.18
15.261
14.268
13.203
12.064
10.853
9.571
8.219
6.8
5.316
3.769
2.164
0.504
-1.206
-2.961
-4.757
-6.586
-8.444
-10.322
-12.216
-14.116
-16.017
-17.911
-19.789
-21.646
-23.474
-25.265
-27.014
-28.714
-30.358
-31.942
-33.461
-34.91
-36.286
-37.584
-38.801
-39.936
-40.985
-41.947
-42.821
-43.607
-44.304
-44.912
-45.433
-45.867
-46.216
-46.482
-46.669
-46.779
-46.816
-46.783
-46.685
-46.528
-46.315
-46.052
-45.744
-45.398
-45.017
-44.609
-44.178
-43.728
-43.266
-42.796
-42.322
-41.849
-41.38
-40.918
-40.467
-40.03
-39.61
-39.208
-38.827
-38.469
-38.136
-37.828
-37.548
-37.295
-37.073
-36.881
-36.72
-36.591
-36.494
-36.43
-36.4
-36.403
-36.439
-36.51
-36.614
-36.751
-36.923
-37.128
-37.368
-37.641
-37.949
-38.292
-38.669
-39.083
-39.532
-40.019
-40.543
-41.106
-41.707
-42.349
-43.031
-43.754
-44.518
-45.323
-46.169
-47.056
-47.982
-48.947
-49.949
-50.985
-52.054
-53.152
-54.278
-55.426
-56.593
-57.774
-58.966
-60.163
-61.359
-62.549
-63.728
-64.889
-66.026
-67.132
-68.2
-69.225
-70.199
-71.115
-71.967
-72.747
-73.45
-74.067
-74.594
-75.024
-75.351
-75.57
-75.677
-75.666
-75.535
-75.279
-74.898
-74.389
-73.751
-72.985
-72.091
-71.07
-69.925
-68.659
-67.275
-65.779
-64.174
-62.468
-60.667
-58.778
-56.809
-54.769
-52.666
-50.51
-48.31
-46.075
-43.817
-41.546
-39.271
-37.003
-34.755
-32.536
-30.357
-28.229
-26.162
-24.168
-22.255
-20.434
-18.713
-17.1
-15.603
-14.231
-12.988
-11.882
-10.918
-10.1
-9.434
-8.923
-8.571
-8.379
-8.348
-8.478
-8.766
-9.211
-9.807
-10.549
-11.429
-12.444
-13.588
-14.855
-16.237
-17.726
-19.31
-20.98
-22.724
-24.528
-26.377
-28.256
-30.152
-32.058
-33.97
-35.883
-37.789
-39.676
-41.532
-43.343
-45.094
-46.768
-48.339
-49.785
-51.092
-52.252
-53.27
-54.144
-54.863
-55.419
-55.795
-55.987
-56
-55.838
-55.514
-55.051
-54.48
-53.853
-53.224
-52.648
-52.176
-51.845
-51.688
-51.755
-52.083
-52.716
-53.72
-55.071
-56.695
-58.471
-60.165
-61.559
-62.481
-62.668
-61.909
-60.238
-57.817
-55.032
-52.52
-50.724
-50.015
-50.899
-53.578
-57.822
-63.116
-68.473
-72.636
-74.617
-73.335
-67.503
-56.295
-39.439
-17.242
9.297
38.839
69.8
99.952
126.559
146.747
157.765
157.445
143.8
116.002
75.487
24.369
-34.822
-101.075
-176.957
-263.275
-355.964
-445.98
-518.148
-558.989
-563.333
-532.375
-475.376
-405.93
-335.046
-273.558
-228.31
-199.071
-182.91
-172.647
-161.41
-147.507
-131.733
-117.361
-106.74
-99.004
-92.243
-84.22
-73.853
-61.536
-48.109
-34.539
-21.712
-10.415
-1.229
5.561
9.954
12.171
12.522
11.327
8.987
5.981
2.698
-0.593
-3.737
-6.67
-9.322
-11.615
-13.495
-14.956
-16.015
-16.679
-16.954
-16.828
-16.287
-15.356
-14.078
-12.489
-10.636
-8.539
-6.195
-3.619
-0.843
2.108
5.201
8.418
11.761
15.216
18.753
22.333
25.897
29.409
32.857
36.223
39.489
42.626
45.582
48.327
50.857
53.164
55.247
57.105
58.726
60.121
61.324
62.378
63.335
64.236
65.1
65.95
66.808
67.699
68.655
69.693
70.817
72.032
73.343
74.755
76.276
77.902
79.615
81.394
83.214
85.059
86.919
88.786
90.65
92.504
94.343
96.165
97.972
99.766
101.545
103.304
105.039
106.749
108.435
110.097
111.736
113.351
114.938
116.495
118.018
119.501
120.937
122.32
123.641
124.891
126.065
127.158
128.164
129.078
129.895
130.611
131.223
131.725
132.114
132.386
132.536
132.562
132.459
132.227
131.861
131.361
130.725
129.952
129.041
127.992
126.804
125.48
124.018
122.423
120.695
118.839
116.858
114.756
112.539
110.212
107.781
105.251
102.631
99.925
97.142
94.287
91.369
88.394
85.371
82.306
79.208
76.084
72.943
69.791
66.637
63.487
60.351
57.234
54.145
51.091
48.079
45.115
42.209
39.365
36.591
33.892
31.276
28.747
26.311
23.973
21.736
19.606
17.586
15.68
13.891
12.221
10.673
9.249
7.95
6.777
5.73
4.811
4.018
3.352
2.812
2.397
2.106
1.936
1.887
1.955
2.137
2.431
2.831
3.334
3.935
4.628
5.409
6.271
7.209
8.216
9.285
10.411
11.584
12.799
14.048
15.324
16.619
17.926
19.238
20.547
21.848
23.132
24.394
25.626
26.823
27.979
29.086
30.139
31.134
32.064
32.925
33.712
34.422
35.051
35.597
36.056
36.427
36.708
36.898
36.996
37.002
36.917
36.74
36.474
36.119
35.678
35.153
34.546
33.86
33.098
32.263
31.357
30.384
29.348
28.251
27.098
25.892
24.637
23.337
21.996
20.617
19.204
17.761
16.291
14.798
13.286
11.757
10.215
8.662
7.102
5.538
3.972
2.407
0.845
-0.711
-2.259
-3.797
-5.323
-6.834
-8.328
-9.803
-11.258
-12.688
-14.093
-15.47
-16.816
-18.129
-19.406
-20.646
-21.845
-23.002
-24.114
-25.179
-26.194
-27.157
-28.066
-28.917
-29.71
-30.441
-31.109
-31.712
-32.249
-32.718
-33.117
-33.446
-33.704
-33.89
-34.005
-34.047
-34.018
-33.919
-33.75
-33.513
-33.21
-32.845
-32.418
-31.934
-31.397
-30.808
-30.174
-29.497
-28.783
-28.036
-27.261
-26.463
-25.647
-24.819
-23.984
-23.148
-22.316
-21.493
-20.684
-19.895
-19.129
-18.393
-17.689
-17.023
-16.397
-15.815
-15.28
-14.795
-14.36
-13.978
-13.65
-13.375
-13.155
-12.987
-12.872
-12.808
-12.792
-12.824
-12.899
-13.017
-13.172
-13.363
-13.585
-13.835
-14.109
-14.403
-14.713
-15.034
-15.364
-15.698
-16.032
-16.364
-16.689
-17.005
-17.309
-17.598
-17.87
-18.123
-18.356
-18.568
-18.758
-18.926
-19.072
-19.196
-19.3
-19.384
-19.449
-19.498
-19.533
-19.553
-19.563
-19.563
-19.556
-19.543
-19.526
-19.507
-19.486
-19.466
-19.448
-19.43
-19.415
-19.402
-19.391
-19.381
-19.371
-19.36
-19.347
-19.328
-19.303
-19.266
-19.216
-19.148
-19.059
-18.943
-18.797
-18.614
-18.392
-18.124
-17.807
-17.435
-17.003
-16.507
-15.943
-15.307
-14.596
-13.808
-12.939
-11.988
-10.955
-9.841
-8.644
-7.368
-6.015
-4.587
-3.087
-1.521
0.107
1.792
3.527
5.306
7.12
8.961
10.82
12.686
14.55
16.402
18.229
20.021
21.767
23.455
25.075
26.614
28.061
29.406
30.636
31.743
32.717
33.547
34.226
34.746
35.101
35.287
35.3
35.138
34.801
34.291
33.609
32.759
31.743
30.565
29.232
27.75
26.126
24.366
22.482
20.485
18.39
16.216
13.977
11.685
9.355
6.996
4.622
2.25
-0.109
-2.442
-4.729
-6.948
-9.067
-11.049
-12.87
-14.519
-15.987
-17.275
-18.376
-19.28
-19.989
-20.506
-20.835
-20.982
-20.943
-20.716
-20.329
-19.829
-19.291
-18.801
-18.414
-18.159
-18.046
-18.082
-18.3
-18.728
-19.377
-20.231
-21.253
-22.426
-23.794
-25.35
-26.98
-28.473
-29.447
-29.532
-28.608
-26.623
-23.523
-19.402
-14.417
-8.929
-3.817
-0.036
1.976
2.091
0.432
-2.549
-6.388
-10.344
-12.836
-11.932
-6.38
4.414
20.636
41.645
66.313
93.243
118.995
139.187
151.216
152.244
141.61
121.035
89.201
45.899
-9.959
-82.275
-169.206
-265.479
-361.391
-440.556
-491.37
-509.781
-498.97
-470.788
-435.908
-399.664
-363.602
-325.14
-282.999
-238.771
-195.215
-156.12
-123.753
-98.507
-79.874
-66.495
-57.046
-50.765
-46.814
-44.125
-41.727
-38.644
-34.375
-29.069
-23.043
-16.537
-9.854
-3.368
2.492
7.156
10.336
12.138
12.762
12.495
11.661
10.529
9.407
8.669
8.53
9.047
10.232
12.004
14.276
17.006
20.102
23.451
26.968
30.576
34.204
37.797
41.266
44.507
47.447
50.033
52.235
54.048
55.467
56.499
57.171
57.521
57.587
57.41
57.022
56.453
55.742
54.93
54.063
53.191
52.351
51.572
50.878
50.287
49.813
49.466
49.25
49.161
49.202
49.374
49.681
50.13
50.721
51.455
52.331
53.348
54.506
55.802
57.236
58.806
60.51
62.346
64.313
66.408
68.629
70.969
73.423
75.982
78.639
81.384
84.209
87.102
90.055
93.056
96.096
99.164
102.249
105.34
108.427
111.498
114.54
117.544
120.497
123.388
126.207
128.942
131.583
134.12
136.541
138.839
141.001
143.02
144.885
146.587
148.118
149.469
150.632
151.599
152.364
152.922
153.269
153.401
153.315
153.008
152.479
151.728
150.751
149.548
148.115
146.453
144.561
142.442
140.099
137.534
134.752
131.759
128.563
125.171
121.59
117.825
113.875
109.748
105.457
101.018
96.452
91.778
87.015
82.183
77.309
72.413
67.511
62.607
57.694
52.775
47.86
42.964
38.114
33.325
28.601
23.942
19.348
14.814
10.342
5.918
1.516
-2.872
-7.236
-11.546
-15.743
-19.788
-23.656
-27.332
-30.811
-34.079
-37.111
-39.885
-42.389
-44.601
-46.504
-48.06
-49.213
-49.935
-50.229
-50.125
-49.686
-48.961
-47.977
-46.764
-45.344
-43.745
-42.002
-40.141
-38.172
-36.12
-34.014
-31.899
-29.842
-27.882
-26.037
-24.303
-22.654
-21.074
-19.56
-18.107
-16.709
-15.36
-14.056
-12.803
-11.619
-10.512
-9.482
-8.522
-7.608
-6.733
-5.898
-5.111
-4.387
-3.738
-3.167
-2.683
-2.294
-2.003
-1.813
-1.716
-1.699
-1.751
-1.867
-2.041
-2.272
-2.554
-2.879
-3.24
-3.628
-4.035
-4.452
-4.871
-5.283
-5.678
-6.051
-6.397
-6.715
-7.002
-7.255
-7.474
-7.656
-7.8
-7.908
-7.98
-8.014
-8.013
-7.978
-7.914
-7.825
-7.714
-7.588
-7.453
-7.314
-7.181
-7.06
-6.96
-6.888
-6.853
-6.864
-6.931
-7.061
-7.265
-7.55
-7.927
-8.404
-8.988
-9.689
-10.512
-11.466
-12.555
-13.785
-15.16
-16.683
-18.356
-20.182
-22.161
-24.293
-26.577
-29.009
-31.588
-34.308
-37.165
-40.151
-43.259
-46.482
-49.808
-53.228
-56.732
-60.307
-63.942
-67.623
-71.337
-75.071
-78.809
-82.537
-86.239
-89.901
-93.506
-97.039
-100.486
-103.83
-107.057
-110.154
-113.106
-115.902
-118.528
-120.975
-123.231
-125.288
-127.136
-128.77
-130.182
-131.369
-132.326
-133.051
-133.543
-133.801
-133.827
-133.623
-133.192
-132.538
-131.667
-130.584
-129.296
-127.812
-126.141
-124.292
-122.277
-120.107
-117.795
-115.354
-112.796
-110.137
-107.39
-104.569
-101.689
-98.764
-95.808
-92.836
-89.86
-86.895
-83.953
-81.046
-78.186
-75.385
-72.651
-69.995
-67.425
-64.95
-62.575
-60.307
-58.153
-56.117
-54.203
-52.415
-50.756
-49.227
-47.83
-46.564
-45.429
-44.422
-43.541
-42.781
-42.138
-41.608
-41.183
-40.858
-40.626
-40.478
-40.408
-40.407
-40.466
-40.577
-40.73
-40.916
-41.127
-41.354
-41.588
-41.821
-42.044
-42.25
-42.431
-42.58
-42.688
-42.748
-42.752
-42.694
-42.566
-42.363
-42.078
-41.706
-41.244
-40.688
-40.037
-39.287
-38.44
-37.494
-36.451
-35.312
-34.08
-32.759
-31.35
-29.86
-28.294
-26.657
-24.958
-23.202
-21.398
-19.554
-17.677
-15.776
-13.86
-11.938
-10.019
-8.115
-6.234
-4.39
-2.593
-0.856
0.808
2.388
3.869
5.243
6.495
7.618
8.602
9.437
10.118
10.639
10.996
11.186
11.204
11.049
10.717
10.21
9.526
8.668
7.637
6.436
5.072
3.558
1.905
0.124
-1.775
-3.787
-5.903
-8.107
-10.386
-12.723
-15.102
-17.507
-19.907
-22.265
-24.545
-26.714
-28.755
-30.668
-32.451
-34.1
-35.607
-36.956
-38.144
-39.184
-40.076
-40.813
-41.392
-41.813
-42.114
-42.376
-42.671
-43.056
-43.556
-44.144
-44.81
-45.561
-46.408
-47.379
-48.48
-49.663
-50.919
-52.301
-53.786
-55.305
-56.652
-57.435
-57.305
-56.041
-53.528
-49.762
-44.926
-39.303
-33.331
-27.726
-23.209
-20.361
-19.464
-20.401
-22.628
-25.414
-28.001
-29.347
-28.213
-23.406
-14.106
-0.018
18.49
40.76
66.31
93.232
117.975
137.294
148.008
150.203
148.08
142.784
133.824
117.004
81.596
22.611
-61.832
-170.443
-289.387
-405.024
-503.03
-566.951
-594.104
-587.343
-552.382
-502.074
-443.715
-382.419
-325.65
-276.507
-236.874
-206.75
-180.995
-155.512
-128.954
-102.028
-78.465
-60.826
-49.314
-42.693
-38.171
-33.725
-28.429
-21.946
-14.659
-6.873
1.368
9.804
17.979
25.364
31.278
35.378
37.752
38.567
38.088
36.629
34.481
32.02
29.726
27.926
26.761
26.298
26.487
27.272
28.644
30.54
32.86
35.521
38.435
41.536
44.785
48.124
51.47
54.741
57.848
60.708
63.278
65.528
67.448
69.049
70.346
71.363
72.138
72.715
73.133
73.434
73.653
73.82
73.974
74.153
74.398
74.751
75.237
75.875
76.678
77.649
78.792
80.105
81.582
83.21
84.98
86.885
88.916
91.07
93.339
95.711
98.177
100.725
103.345
106.027
108.762
111.54
114.35
117.184
120.033
122.888
125.739
128.578
131.393
134.174
136.91
139.592
142.21
144.756
147.219
149.594
151.873
154.05
156.12
158.078
159.92
161.642
163.241
164.716
166.065
167.286
168.378
169.34
170.174
170.877
171.452
171.898
172.215
172.406
172.471
172.412
172.23
171.926
171.503
170.962
170.305
169.533
168.648
167.652
166.546
165.33
164.008
162.579
161.044
159.404
157.66
155.812
153.86
151.804
149.645
147.382
145.017
142.55
139.981
137.311
134.543
131.677
128.716
125.662
122.519
119.29
115.978
112.589
109.126
105.595
102.002
98.353
94.654
90.912
87.135
83.33
79.506
75.67
71.832
68.001
64.186
60.396
56.642
52.933
49.28
45.692
42.18
38.754
35.424
32.199
29.088
26.102
23.247
20.532
17.964
15.549
13.294
11.203
9.28
7.529
5.952
4.551
3.326
2.279
1.408
0.71
0.185
-0.172
-0.364
-0.397
-0.275
-0.006
0.404
0.948
1.616
2.401
3.293
4.283
5.36
6.514
7.734
9.011
10.333
11.689
13.069
14.462
15.858
17.248
18.621
19.969
21.283
22.556
23.779
24.947
26.052
27.089
28.053
28.939
29.744
30.465
31.098
31.643
32.097
32.46
32.732
32.914
33.005
33.009
32.926
32.758
32.509
32.182
31.78
31.306
30.765
30.16
29.497
28.779
28.011
27.197
26.342
25.45
24.526
23.574
22.597
21.6
20.587
19.561
18.526
17.485
16.441
15.397
14.355
13.318
12.288
11.267
10.256
9.257
8.271
7.3
6.343
5.403
4.479
3.574
2.685
1.816
0.964
0.132
-0.682
-1.478
-2.255
-3.014
-3.755
-4.479
-5.186
-5.876
-6.551
-7.211
-7.857
-8.49
-9.11
-9.718
-10.316
-10.903
-11.481
-12.05
-12.611
-13.163
-13.707
-14.244
-14.774
-15.296
-15.812
-16.32
-16.822
-17.317
-17.805
-18.287
-18.762
-19.231
-19.693
-20.148
-20.597
-21.039
-21.473
-21.901
-22.32
-22.731
-23.133
-23.524
-23.905
-24.274
-24.631
-24.973
-25.3
-25.612
-25.907
-26.185
-26.445
-26.686
-26.908
-27.111
-27.294
-27.457
-27.601
-27.726
-27.831
-27.917
-27.984
-28.033
-28.063
-28.074
-28.067
-28.042
-27.998
-27.937
-27.857
-27.758
-27.642
-27.507
-27.353
-27.182
-26.992
-26.785
-26.56
-26.317
-26.056
-25.777
-25.479
-25.162
-24.826
-24.469
-24.091
-23.69
-23.264
-22.813
-22.335
-21.827
-21.289
-20.718
-20.111
-19.468
-18.786
-18.064
-17.3
-16.493
-15.642
-14.746
-13.806
-12.822
-11.794
-10.723
-9.609
-8.453
-7.258
-6.025
-4.755
-3.451
-2.116
-0.752
0.636
2.043
3.467
4.902
6.344
7.786
9.222
10.647
12.055
13.439
14.791
16.104
17.37
18.582
19.733
20.815
21.82
22.741
23.571
24.306
24.939
25.467
25.887
26.196
26.393
26.478
26.45
26.309
26.054
25.688
25.213
24.63
23.941
23.154
22.273
21.309
20.274
19.176
18.023
16.822
15.576
14.294
12.987
11.662
10.328
9
7.694
6.439
5.269
4.204
3.251
2.415
1.693
1.089
0.615
0.277
0.073
0.003
0.065
0.266
0.613
1.089
1.646
2.21
2.696
3.049
3.251
3.301
3.191
2.894
2.37
1.601
0.603
-0.583
-1.954
-3.564
-5.412
-7.392
-9.281
-10.702
-11.332
-11.068
-9.86
-7.631
-4.448
-0.47
3.961
8.067
11.059
12.583
12.506
10.869
8.038
4.508
0.984
-1.254
-0.581
4.323
14.372
30.088
50.351
72.731
95.088
115.437
133.822
151.793
167.717
177.002
171.94
143.914
90.51
13.823
-80.686
-183.409
-285.985
-378.141
-447.004
-485.837
-493.156
-474.62
-443.569
-409.164
-375.562
-343.13
-307.508
-267.56
-225.502
-184.123
-147.501
-117.771
-94.665
-77.418
-64.878
-55.858
-49.607
-45.333
-41.752
-37.685
-32.575
-26.278
-18.982
-11.099
-2.918
5.268
12.81
19.002
23.497
26.223
27.357
27.227
26.094
24.22
22.008
19.926
18.297
17.289
16.944
17.204
18.035
19.422
21.312
23.61
26.225
29.075
32.094
35.245
38.466
41.665
44.743
47.592
50.141
52.351
54.204
55.691
56.812
57.581
58.023
58.179
58.091
57.795
57.325
56.711
55.993
55.214
54.423
53.668
52.989
52.409
51.95
51.626
51.45
51.429
51.563
51.848
52.282
52.865
53.598
54.484
55.52
56.705
58.033
59.499
61.1
62.83
64.684
66.656
68.741
70.934
73.227
75.617
78.095
80.652
83.278
85.963
88.694
91.46
94.247
97.044
99.837
102.612
105.359
108.063
110.713
113.297
115.801
118.215
120.525
122.722
124.795
126.731
128.522
130.159
131.631
132.932
134.053
134.987
135.728
136.271
136.611
136.742
136.663
136.37
135.861
135.134
134.19
133.028
131.65
130.057
128.253
126.24
124.023
121.607
118.996
116.198
113.218
110.064
106.743
103.265
99.639
95.873
91.977
87.962
83.839
79.618
75.309
70.923
66.473
61.967
57.419
52.839
48.237
43.626
39.016
34.417
29.841
25.297
20.797
16.348
11.961
7.644
3.406
-0.745
-4.801
-8.756
-12.604
-16.338
-19.953
-23.446
-26.812
-30.049
-33.153
-36.124
-38.96
-41.66
-44.224
-46.652
-48.944
-51.101
-53.125
-55.016
-56.779
-58.414
-59.924
-61.312
-62.583
-63.738
-64.782
-65.718
-66.552
-67.286
-67.926
-68.475
-68.94
-69.324
-69.633
-69.87
-70.041
-70.15
-70.201
-70.199
-70.146
-70.047
-69.905
-69.723
-69.505
-69.253
-68.972
-68.662
-68.328
-67.971
-67.594
-67.201
-66.792
-66.37
-65.938
-65.498
-65.052
-64.601
-64.149
-63.696
-63.245
-62.796
-62.352
-61.914
-61.482
-61.058
-60.643
-60.238
-59.844
-59.462
-59.093
-58.739
-58.399
-58.076
-57.77
-57.483
-57.215
-56.967
-56.741
-56.537
-56.356
-56.199
-56.067
-55.96
-55.879
-55.824
-55.795
-55.793
-55.817
-55.869
-55.946
-56.051
-56.182
-56.34
-56.525
-56.737
-56.976
-57.242
-57.535
-57.855
-58.203
-58.578
-58.979
-59.408
-59.863
-60.346
-60.854
-61.39
-61.951
-62.538
-63.152
-63.79
-64.454
-65.142
-65.855
-66.591
-67.351
-68.134
-68.939
-69.767
-70.615
-71.483
-72.371
-73.277
-74.199
-75.136
-76.085
-77.046
-78.015
-78.991
-79.971
-80.951
-81.93
-82.904
-83.869
-84.824
-85.763
-86.684
-87.582
-88.454
-89.296
-90.104
-90.874
-91.602
-92.285
-92.918
-93.498
-94.021
-94.483
-94.881
-95.213
-95.474
-95.663
-95.778
-95.816
-95.776
-95.658
-95.46
-95.183
-94.827
-94.393
-93.881
-93.295
-92.635
-91.905
-91.107
-90.245
-89.322
-88.342
-87.31
-86.23
-85.108
-83.947
-82.755
-81.535
-80.294
-79.038
-77.771
-76.499
-75.229
-73.965
-72.713
-71.477
-70.264
-69.076
-67.918
-66.794
-65.706
-64.658
-63.651
-62.687
-61.767
-60.891
-60.06
-59.272
-58.527
-57.822
-57.156
-56.526
-55.929
-55.361
-54.818
-54.296
-53.79
-53.296
-52.809
-52.323
-51.833
-51.333
-50.818
-50.282
-49.719
-49.125
-48.494
-47.821
-47.1
-46.327
-45.498
-44.609
-43.656
-42.635
-41.545
-40.383
-39.146
-37.835
-36.449
-34.987
-33.452
-31.844
-30.166
-28.42
-26.611
-24.74
-22.814
-20.836
-18.812
-16.748
-14.649
-12.522
-10.373
-8.211
-6.042
-3.873
-1.714
0.43
2.548
4.633
6.677
8.67
10.605
12.473
14.264
15.969
17.581
19.09
20.487
21.765
22.916
23.933
24.81
25.543
26.127
26.56
26.841
26.968
26.942
26.761
26.425
25.935
25.292
24.499
23.559
22.475
21.255
19.91
18.449
16.881
15.216
13.455
11.607
9.683
7.692
5.648
3.566
1.463
-0.636
-2.698
-4.694
-6.601
-8.402
-10.094
-11.672
-13.127
-14.446
-15.613
-16.62
-17.474
-18.175
-18.724
-19.126
-19.403
-19.604
-19.802
-20.059
-20.416
-20.886
-21.471
-22.18
-23.038
-24.084
-25.343
-26.8
-28.44
-30.269
-32.251
-34.305
-36.255
-37.786
-38.578
-38.399
-37.092
-34.583
-30.983
-26.506
-21.493
-16.501
-12.079
-8.712
-6.734
-6.169
-6.652
-7.604
-8.356
-8.021
-5.621
-0.063
9.667
24.004
42.599
64.88
90.206
117.292
144.511
168.877
185.943
193.351
190.303
177.141
157.539
131.935
97.033
50.362
-14.7
-101.375
-202.58
-308.658
-403.307
-468.36
-498.948
-497.431
-471.58
-435.096
-393.285
-344.88
-290.991
-232.343
-173.283
-123.164
-85.388
-57.992
-38.526
-21.674
-5.588
6.825
14.44
16.747
14.747
11.831
10.169
10.385
12.568
16.181
20.718
25.917
31.266
36.014
39.462
41.309
41.623
40.645
38.735
36.231
33.457
30.822
28.733
27.413
26.927
27.255
28.293
29.953
32.176
34.857
37.877
41.137
44.545
48.021
51.495
54.877
58.066
60.989
63.595
65.853
67.758
69.31
70.521
71.418
72.035
72.409
72.576
72.572
72.431
72.193
71.902
71.602
71.338
71.145
71.049
71.069
71.217
71.501
71.924
72.486
73.18
74.005
74.957
76.038
77.248
78.583
80.041
81.617
83.306
85.104
87.006
89.008
91.105
93.293
95.566
97.92
100.35
102.848
105.407
108.015
110.664
113.341
116.037
118.739
121.435
124.114
126.766
129.38
131.944
134.45
136.888
139.248
141.521
143.7
145.775
147.74
149.587
151.31
152.903
154.359
155.674
156.844
157.863
158.729
159.439
159.991
160.383
160.614
160.685
160.596
160.348
159.943
159.384
158.674
157.816
156.816
155.676
154.403
153
151.473
149.826
148.065
146.193
144.217
142.141
139.969
137.706
135.357
132.927
130.42
127.841
125.195
122.485
119.717
116.896
114.025
111.11
108.154
105.163
102.14
99.09
96.016
92.922
89.811
86.688
83.555
80.414
77.27
74.125
70.982
67.844
64.715
61.597
58.494
55.409
52.348
49.314
46.311
43.344
40.418
37.537
34.708
31.935
29.223
26.577
24.003
21.506
19.09
16.76
14.521
12.377
10.332
8.391
6.557
4.835
3.226
1.735
0.365
-0.882
-2.004
-2.999
-3.866
-4.603
-5.21
-5.688
-6.036
-6.258
-6.354
-6.328
-6.182
-5.922
-5.551
-5.076
-4.502
-3.835
-3.082
-2.25
-1.347
-0.38
0.642
1.713
2.824
3.966
5.132
6.314
7.504
8.693
9.876
11.043
12.187
13.303
14.383
15.421
16.411
17.348
18.226
19.041
19.789
20.467
21.072
21.603
22.057
22.434
22.735
22.959
23.107
23.183
23.187
23.122
22.991
22.798
22.546
22.24
21.883
21.479
21.032
20.548
20.03
19.482
18.909
18.314
17.703
17.077
16.442
15.802
15.158
14.515
13.877
13.244
12.621
12.01
11.412
10.828
10.262
9.712
9.181
8.668
8.173
7.696
7.237
6.794
6.368
5.957
5.559
5.174
4.8
4.436
4.081
3.733
3.392
3.057
2.726
2.399
2.076
1.755
1.437
1.12
0.806
0.492
0.179
-0.134
-0.446
-0.758
-1.071
-1.384
-1.697
-2.011
-2.325
-2.641
-2.958
-3.276
-3.596
-3.917
-4.24
-4.565
-4.893
-5.223
-5.556
-5.894
-6.236
-6.583
-6.937
-7.299
-7.669
-8.05
-8.443
-8.849
-9.27
-9.708
-10.165
-10.641
-11.139
-11.659
-12.203
-12.773
-13.368
-13.99
-14.639
-15.316
-16.019
-16.748
-17.504
-18.285
-19.089
-19.916
-20.764
-21.631
-22.516
-23.415
-24.327
-25.248
-26.177
-27.11
-28.044
-28.975
-29.9
-30.815
-31.716
-32.6
-33.461
-34.297
-35.102
-35.874
-36.607
-37.297
-37.942
-38.535
-39.075
-39.558
-39.981
-40.341
-40.636
-40.863
-41.022
-41.111
-41.128
-41.073
-40.946
-40.746
-40.473
-40.128
-39.71
-39.221
-38.662
-38.033
-37.337
-36.573
-35.745
-34.854
-33.901
-32.89
-31.821
-30.698
-29.522
-28.297
-27.026
-25.712
-24.359
-22.97
-21.549
-20.099
-18.624
-17.128
-15.614
-14.086
-12.546
-10.999
-9.446
-7.893
-6.342
-4.797
-3.262
-1.739
-0.234
1.251
2.71
4.141
5.539
6.9
8.22
9.492
10.713
11.875
12.973
13.999
14.948
15.814
16.591
17.275
17.862
18.349
18.736
19.022
19.203
19.277
19.244
19.1
18.845
18.479
18.003
17.419
16.731
15.943
15.063
14.096
13.043
11.905
10.675
9.354
7.945
6.454
4.892
3.268
1.595
-0.109
-1.821
-3.519
-5.189
-6.821
-8.409
-9.946
-11.419
-12.804
-14.078
-15.227
-16.251
-17.162
-17.976
-18.712
-19.388
-20.038
-20.718
-21.494
-22.421
-23.547
-24.916
-26.555
-28.532
-30.962
-33.881
-37.232
-40.868
-44.515
-47.962
-51.123
-53.828
-55.821
-57.038
-57.578
-57.855
-58.637
-60.374
-63.144
-67.042
-72.124
-78.192
-84.845
-91.088
-95.374
-96.795
-94.987
-89.627
-80.5
-67.451
-50.539
-30.499
-8.611
14.45
38.566
62.429
83.572
99.853
108.918
111.633
112.203
110.521
104.843
90.297
56.412
-0.555
-80.728
-182.795
-296.374
-411.16
-516.634
-597.87
-645.054
-654.652
-628.372
-576.189
-513.446
-452.63
-401.208
-363.107
-334.35
-308.95
-285.225
-261.088
-237.682
-219.211
-206.425
-199.037
-196.122
-194.473
-191.616
-186.739
-179.524
-170.312
-159.862
-148.747
-137.379
-126.521
-117.162
-109.798
-104.622
-101.618
-100.391
-100.555
-101.844
-103.808
-105.899
-107.743
-109.047
-109.635
-109.518
-108.687
-107.12
-104.849
-101.927
-98.405
-94.363
-89.87
-84.98
-79.765
-74.304
-68.683
-63.017
-57.417
-51.987
-46.806
-41.922
-37.365
-33.153
-29.294
-25.784
-22.603
-19.717
-17.092
-14.697
-12.502
-10.48
-8.596
-6.808
-5.075
-3.355
-1.62
0.148
1.965
3.842
5.784
7.795
9.873
12.009
14.199
16.442
18.737
21.085
23.485
25.934
28.428
30.965
33.544
36.163
38.822
41.519
44.255
47.028
49.839
52.689
55.577
58.5
61.456
64.442
67.453
70.487
73.538
76.603
79.675
82.752
85.828
88.9
91.961
95.008
98.036
101.039
104.013
106.953
109.853
112.708
115.512
118.26
120.945
123.562
126.104
128.566
130.94
133.222
135.404
137.48
139.446
141.293
143.017
144.613
146.073
147.393
148.567
149.592
150.462
151.173
151.722
152.106
152.321
152.365
152.236
151.933
151.453
150.797
149.963
148.953
147.766
146.405
144.872
143.17
141.302
139.273
137.087
134.75
132.267
129.646
126.893
124.016
121.023
117.923
114.726
111.44
108.076
104.645
101.155
97.619
94.046
90.448
86.835
83.217
79.606
76.012
72.444
68.915
65.433
62.009
58.653
55.373
52.179
49.079
46.082
43.194
40.422
37.773
35.253
32.866
30.618
28.512
26.551
24.738
23.074
21.562
20.2
18.989
17.927
17.013
16.246
15.621
15.136
14.788
14.572
14.483
14.517
14.668
14.931
15.299
15.766
16.324
16.967
17.687
18.478
19.33
20.238
21.193
22.188
23.214
24.266
25.334
26.413
27.495
28.574
29.642
30.695
31.726
32.73
33.703
34.639
35.534
36.385
37.188
37.94
38.639
39.281
39.864
40.387
40.848
41.247
41.582
41.854
42.062
42.207
42.289
42.31
42.27
42.172
42.015
41.803
41.538
41.221
40.856
40.444
39.988
39.491
38.956
38.385
37.78
37.146
36.483
35.795
35.084
34.352
33.603
32.837
32.059
31.269
30.471
29.665
28.855
28.042
27.228
26.415
25.603
24.795
23.991
23.194
22.402
21.619
20.844
20.077
19.319
18.571
17.831
17.1
16.376
15.66
14.951
14.247
13.548
12.852
12.159
11.466
10.772
10.075
9.374
8.666
7.95
7.223
6.484
5.73
4.96
4.172
3.364
2.534
1.681
0.803
-0.101
-1.032
-1.991
-2.979
-3.996
-5.041
-6.115
-7.216
-8.344
-9.496
-10.671
-11.866
-13.077
-14.303
-15.54
-16.783
-18.028
-19.27
-20.504
-21.723
-22.921
-24.093
-25.231
-26.328
-27.377
-28.372
-29.306
-30.171
-30.962
-31.67
-32.29
-32.815
-33.24
-33.558
-33.765
-33.856
-33.827
-33.675
-33.399
-32.995
-32.465
-31.807
-31.024
-30.116
-29.087
-27.938
-26.674
-25.299
-23.82
-22.244
-20.577
-18.829
-17.008
-15.128
-13.2
-11.238
-9.255
-7.263
-5.276
-3.306
-1.369
0.522
2.355
4.119
5.8
7.38
8.845
10.176
11.362
12.402
13.291
14.022
14.593
15.002
15.25
15.345
15.285
15.06
14.664
14.086
13.328
12.405
11.333
10.125
8.792
7.329
5.741
4.041
2.233
0.315
-1.719
-3.891
-6.19
-8.573
-11.001
-13.436
-15.843
-18.218
-20.548
-22.807
-24.969
-27
-28.873
-30.585
-32.116
-33.426
-34.462
-35.165
-35.519
-35.57
-35.367
-34.95
-34.347
-33.571
-32.656
-31.683
-30.732
-29.879
-29.172
-28.633
-28.322
-28.271
-28.475
-28.883
-29.313
-29.53
-29.371
-28.715
-27.453
-25.738
-23.847
-22.045
-20.816
-20.581
-21.574
-24.024
-28.005
-33.003
-38.207
-42.87
-46.009
-46.82
-44.721
-38.903
-28.729
-14.379
3.432
24.168
47.008
70.825
94.516
115.466
129.722
135.446
131.851
118.862
99.987
75.625
42.066
-3.539
-68.16
-155.626
-258.954
-367.784
-465.189
-532.991
-565.459
-564.695
-540.856
-508.248
-472.978
-435.374
-391.028
-336.734
-277.386
-220.706
-176.511
-149.171
-133.896
-125.071
-116.411
-105.24
-94.526
-85.897
-79.699
-75.076
-69.522
-62.096
-53.148
-43.194
-33.102
-23.445
-14.715
-7.619
-2.527
0.557
1.863
1.788
0.665
-1.232
-3.533
-5.791
-7.666
-8.946
-9.557
-9.53
-8.882
-7.626
-5.801
-3.482
-0.758
2.287
5.575
9.055
12.667
16.339
19.989
23.53
26.881
29.97
32.751
35.196
37.289
39.035
40.446
41.544
42.363
42.944
43.325
43.544
43.633
43.623
43.55
43.45
43.361
43.319
43.35
43.472
43.7
44.04
44.498
45.076
45.771
46.575
47.486
48.499
49.613
50.828
52.142
53.552
55.053
56.642
58.313
60.065
61.895
63.798
65.77
67.809
69.912
72.075
74.297
76.57
78.89
81.25
83.643
86.063
88.503
90.953
93.409
95.861
98.303
100.729
103.131
105.503
107.838
110.129
112.368
114.549
116.665
118.709
120.673
122.55
124.334
126.018
127.596
129.06
130.406
131.626
132.716
133.67
134.484
135.152
135.669
136.034
136.241
136.288
136.174
135.896
135.452
134.843
134.068
133.126
132.017
130.743
129.305
127.703
125.94
124.019
121.943
119.715
117.341
114.825
112.174
109.392
106.487
103.465
100.334
97.102
93.776
90.366
86.88
83.327
79.717
76.059
72.362
68.637
64.892
61.137
57.382
53.635
49.907
46.205
42.54
38.92
35.355
31.854
28.425
25.077
21.819
18.657
15.6
12.655
9.828
7.126
4.554
2.118
-0.177
-2.327
-4.327
-6.176
-7.869
-9.406
-10.784
-12.003
-13.064
-13.965
-14.709
-15.297
-15.73
-16.011
-16.142
-16.128
-15.973
-15.68
-15.256
-14.706
-14.036
-13.255
-12.368
-11.385
-10.312
-9.159
-7.935
-6.648
-5.309
-3.926
-2.509
-1.068
0.387
1.847
3.302
4.742
6.16
7.545
8.891
10.189
11.432
12.613
13.725
14.762
15.718
16.589
17.371
18.058
18.649
19.142
19.533
19.823
20.012
20.1
20.088
19.978
19.772
19.475
19.089
18.618
18.069
17.446
16.755
16.002
15.194
14.337
13.439
12.506
11.544
10.562
9.565
8.561
7.556
6.556
5.567
4.596
3.648
2.729
1.843
0.994
0.188
-0.574
-1.287
-1.949
-2.559
-3.114
-3.613
-4.057
-4.444
-4.775
-5.052
-5.276
-5.448
-5.572
-5.651
-5.686
-5.682
-5.643
-5.572
-5.473
-5.35
-5.207
-5.05
-4.881
-4.706
-4.528
-4.352
-4.182
-4.023
-3.877
-3.749
-3.643
-3.56
-3.505
-3.48
-3.489
-3.532
-3.613
-3.733
-3.894
-4.097
-4.342
-4.63
-4.961
-5.334
-5.749
-6.203
-6.697
-7.227
-7.792
-8.391
-9.019
-9.674
-10.354
-11.054
-11.771
-12.5
-13.238
-13.981
-14.724
-15.462
-16.191
-16.906
-17.603
-18.277
-18.923
-19.537
-20.112
-20.645
-21.13
-21.564
-21.941
-22.257
-22.509
-22.693
-22.805
-22.845
-22.808
-22.694
-22.501
-22.227
-21.872
-21.437
-20.921
-20.327
-19.656
-18.912
-18.098
-17.219
-16.278
-15.282
-14.236
-13.148
-12.022
-10.867
-9.691
-8.501
-7.306
-6.116
-4.938
-3.784
-2.663
-1.587
-0.565
0.392
1.274
2.073
2.78
3.389
3.891
4.282
4.557
4.709
4.735
4.633
4.4
4.035
3.54
2.92
2.181
1.33
0.373
-0.683
-1.829
-3.059
-4.369
-5.754
-7.212
-8.741
-10.329
-11.965
-13.633
-15.316
-17
-18.674
-20.32
-21.925
-23.475
-24.952
-26.351
-27.665
-28.875
-29.959
-30.887
-31.642
-32.226
-32.651
-32.93
-33.077
-33.106
-33.043
-32.937
-32.845
-32.814
-32.874
-33.055
-33.403
-33.917
-34.573
-35.291
-35.886
-36.188
-36.082
-35.387
-33.964
-31.894
-29.356
-26.696
-24.491
-23.114
-22.842
-24.102
-27.049
-31.419
-36.7
-41.948
-45.988
-48.03
-47.233
-42.497
-33.213
-19.183
-0.623
21.509
46.1
72.111
97.789
120.762
138.916
149.993
151.864
142.971
121.595
87.37
42.192
-11.635
-72.325
-140.189
-216.719
-299.87
-382.476
-452.586
-498.257
-514.303
-503.284
-474.3
-437.162
-397.639
-357.599
-315.448
-270.385
-223.999
-179.074
-139.557
-107.971
-84.522
-68.388
-58.108
-52.204
-49.676
-49.463
-49.97
-49.72
-47.944
-44.429
-39.426
-33.418
-26.749
-19.782
-13.228
-7.841
-3.995
-1.751
-0.917
-1.127
-2.083
-3.516
-5.03
-6.205
-6.791
-6.674
-5.861
-4.452
-2.515
-0.101
2.705
5.791
9.064
12.44
15.865
19.3
22.675
25.905
28.903
31.601
33.966
35.985
37.651
38.969
39.954
40.63
41.036
41.21
41.187
40.998
40.673
40.244
39.751
39.234
38.735
38.287
37.915
37.634
37.459
37.397
37.456
37.636
37.931
38.34
38.863
39.5
40.253
41.12
42.099
43.187
44.379
45.672
47.064
48.55
50.128
51.795
53.547
55.382
57.297
59.29
61.355
63.488
65.681
67.93
70.228
72.568
74.943
77.347
79.773
82.213
84.661
87.11
89.552
91.982
94.391
96.773
99.121
101.427
103.685
105.887
108.028
110.099
112.094
114.005
115.827
117.551
119.172
120.682
122.076
123.345
124.485
125.489
126.35
127.062
127.62
128.018
128.25
128.311
128.198
127.906
127.43
126.769
125.919
124.879
123.647
122.221
120.603
118.791
116.787
114.594
112.212
109.647
106.902
103.981
100.892
97.639
94.231
90.674
86.977
83.15
79.201
75.141
70.981
66.731
62.403
58.009
53.563
49.076
44.562
40.034
35.504
30.986
26.492
22.036
17.629
13.283
9.012
4.826
0.737
-3.244
-7.107
-10.843
-14.442
-17.896
-21.198
-24.34
-27.316
-30.121
-32.751
-35.2
-37.466
-39.545
-41.437
-43.139
-44.652
-45.976
-47.112
-48.062
-48.83
-49.418
-49.831
-50.072
-50.149
-50.064
-49.826
-49.439
-48.911
-48.248
-47.459
-46.552
-45.534
-44.415
-43.202
-41.905
-40.533
-39.093
-37.596
-36.049
-34.461
-32.842
-31.199
-29.542
-27.88
-26.22
-24.57
-22.939
-21.335
-19.763
-18.231
-16.746
-15.313
-13.937
-12.623
-11.378
-10.204
-9.106
-8.088
-7.152
-6.302
-5.539
-4.866
-4.283
-3.79
-3.389
-3.078
-2.857
-2.725
-2.68
-2.721
-2.845
-3.05
-3.332
-3.687
-4.113
-4.603
-5.154
-5.761
-6.419
-7.122
-7.866
-8.645
-9.454
-10.289
-11.144
-12.013
-12.893
-13.777
-14.662
-15.541
-16.412
-17.269
-18.109
-18.928
-19.724
-20.493
-21.233
-21.941
-22.616
-23.256
-23.859
-24.426
-24.955
-25.446
-25.9
-26.317
-26.7
-27.049
-27.367
-27.655
-27.917
-28.155
-28.372
-28.571
-28.754
-28.925
-29.087
-29.242
-29.396
-29.549
-29.706
-29.87
-30.043
-30.228
-30.427
-30.642
-30.875
-31.127
-31.401
-31.698
-32.017
-32.362
-32.731
-33.125
-33.545
-33.989
-34.458
-34.95
-35.464
-35.998
-36.551
-37.121
-37.706
-38.303
-38.911
-39.527
-40.149
-40.774
-41.401
-42.026
-42.648
-43.264
-43.872
-44.471
-45.058
-45.632
-46.193
-46.737
-47.266
-47.777
-48.269
-48.743
-49.196
-49.629
-50.041
-50.431
-50.799
-51.146
-51.47
-51.771
-52.05
-52.307
-52.541
-52.752
-52.94
-53.105
-53.245
-53.361
-53.452
-53.516
-53.553
-53.561
-53.539
-53.484
-53.395
-53.269
-53.103
-52.895
-52.641
-52.337
-51.981
-51.57
-51.099
-50.566
-49.967
-49.3
-48.562
-47.75
-46.861
-45.894
-44.846
-43.714
-42.499
-41.199
-39.813
-38.341
-36.784
-35.142
-33.418
-31.613
-29.73
-27.773
-25.744
-23.65
-21.495
-19.286
-17.03
-14.734
-12.408
-10.06
-7.7
-5.338
-2.986
-0.654
1.647
3.906
6.112
8.252
10.316
12.294
14.173
15.943
17.595
19.117
20.501
21.735
22.811
23.721
24.457
25.013
25.384
25.566
25.557
25.356
24.965
24.385
23.618
22.667
21.537
20.236
18.772
17.157
15.404
13.528
11.542
9.461
7.301
5.075
2.794
0.467
-1.902
-4.307
-6.731
-9.157
-11.567
-13.937
-16.255
-18.506
-20.671
-22.731
-24.67
-26.473
-28.136
-29.659
-31.022
-32.201
-33.165
-33.891
-34.396
-34.706
-34.851
-34.861
-34.745
-34.521
-34.247
-33.983
-33.791
-33.725
-33.786
-33.976
-34.361
-34.967
-35.778
-36.686
-37.418
-37.691
-37.318
-36.174
-34.186
-31.462
-28.19
-24.729
-21.751
-19.94
-19.891
-21.965
-26.126
-31.9
-38.561
-45.149
-50.29
-52.469
-50.118
-42.01
-27.648
-7.239
18.504
48.357
80.28
111.535
138.915
159.089
169.196
166.919
150.096
118.229
73.079
17.076
-46.491
-116.594
-194.893
-279.278
-364.707
-441.123
-494.647
-519.767
-515.956
-488.077
-447.128
-397.385
-343.384
-291.018
-241.774
-201.288
-171.523
-148.196
-129.168
-110.288
-89.92
-71.633
-57.137
-47.753
-43.519
-41.592
-40.125
-38.183
-35.229
-31.67
-27.723
-23.201
-18.203
-13.077
-8.298
-4.519
-2.061
-0.854
-0.769
-1.592
-3.071
-4.963
-6.912
-8.494
-9.463
-9.731
-9.287
-8.22
-6.591
-4.43
-1.819
1.141
4.362
7.761
11.284
14.88
18.477
21.987
25.318
28.399
31.19
33.672
35.839
37.699
39.266
40.561
41.619
42.472
43.151
43.686
44.102
44.431
44.71
44.977
45.271
45.626
46.06
46.59
47.224
47.966
48.817
49.776
50.832
51.983
53.224
54.555
55.974
57.479
59.068
60.734
62.474
64.283
66.157
68.093
70.088
72.138
74.24
76.392
78.592
80.837
83.122
85.44
87.787
90.155
92.538
94.93
97.323
99.711
102.088
104.447
106.782
109.089
111.361
113.592
115.777
117.911
119.988
122.002
123.948
125.821
127.616
129.326
130.947
132.474
133.901
135.224
136.438
137.538
138.52
139.379
140.111
140.712
141.178
141.505
141.69
141.73
141.623
141.365
140.955
140.391
139.672
138.796
137.761
136.569
135.217
133.709
132.043
130.222
128.248
126.124
123.854
121.44
118.889
116.204
113.392
110.459
107.412
104.257
101.003
97.658
94.231
90.731
87.169
83.553
79.894
76.204
72.493
68.771
65.05
61.342
57.657
54.007
50.402
46.855
43.374
39.971
36.655
33.435
30.32
27.318
24.436
21.681
19.058
16.572
14.229
12.031
9.982
8.084
6.338
4.744
3.303
2.012
0.871
-0.124
-0.976
-1.689
-2.267
-2.717
-3.044
-3.255
-3.356
-3.355
-3.261
-3.082
-2.826
-2.502
-2.12
-1.687
-1.213
-0.706
-0.174
0.374
0.931
1.489
2.043
2.584
3.108
3.608
4.08
4.52
4.923
5.286
5.608
5.884
6.115
6.298
6.433
6.52
6.559
6.55
6.494
6.394
6.249
6.063
5.838
5.576
5.279
4.952
4.597
4.216
3.814
3.391
2.952
2.499
2.033
1.558
1.074
0.584
0.089
-0.41
-0.913
-1.419
-1.927
-2.44
-2.956
-3.476
-4.002
-4.534
-5.074
-5.622
-6.179
-6.748
-7.327
-7.919
-8.524
-9.143
-9.776
-10.425
-11.089
-11.768
-12.463
-13.173
-13.898
-14.637
-15.389
-16.153
-16.928
-17.711
-18.502
-19.298
-20.096
-20.896
-21.693
-22.485
-23.27
-24.043
-24.803
-25.545
-26.267
-26.966
-27.639
-28.283
-28.896
-29.477
-30.023
-30.535
-31.01
-31.449
-31.852
-32.218
-32.55
-32.848
-33.114
-33.35
-33.559
-33.743
-33.905
-34.049
-34.178
-34.296
-34.407
-34.514
-34.622
-34.735
-34.856
-34.989
-35.139
-35.309
-35.504
-35.726
-35.979
-36.266
-36.591
-36.955
-37.359
-37.807
-38.297
-38.831
-39.409
-40.029
-40.69
-41.391
-42.129
-42.901
-43.704
-44.534
-45.387
-46.259
-47.143
-48.035
-48.931
-49.823
-50.708
-51.579
-52.432
-53.261
-54.062
-54.83
-55.561
-56.25
-56.893
-57.488
-58.03
-58.518
-58.948
-59.32
-59.631
-59.881
-60.07
-60.199
-60.268
-60.279
-60.233
-60.134
-59.984
-59.787
-59.546
-59.265
-58.951
-58.607
-58.239
-57.852
-57.452
-57.045
-56.635
-56.228
-55.829
-55.441
-55.07
-54.717
-54.387
-54.082
-53.805
-53.557
-53.338
-53.151
-52.994
-52.868
-52.77
-52.699
-52.652
-52.627
-52.619
-52.625
-52.64
-52.659
-52.676
-52.686
-52.682
-52.658
-52.607
-52.521
-52.392
-52.213
-51.977
-51.675
-51.301
-50.848
-50.31
-49.682
-48.958
-48.135
-47.21
-46.179
-45.04
-43.793
-42.436
-40.969
-39.394
-37.713
-35.928
-34.045
-32.067
-30.001
-27.852
-25.628
-23.337
-20.987
-18.587
-16.146
-13.674
-11.183
-8.684
-6.19
-3.714
-1.268
1.132
3.475
5.748
7.937
10.031
12.02
13.892
15.641
17.257
18.734
20.067
21.25
22.276
23.14
23.842
24.378
24.748
24.953
24.99
24.867
24.592
24.173
23.62
22.941
22.137
21.217
20.194
19.082
17.897
16.654
15.367
14.059
12.767
11.524
10.365
9.308
8.354
7.509
6.778
6.173
5.712
5.4
5.221
5.167
5.24
5.439
5.764
6.182
6.616
6.987
7.229
7.299
7.202
6.945
6.522
5.917
5.105
4.083
2.888
1.57
0.138
-1.442
-3.154
-4.871
-6.332
-7.144
-6.958
-5.659
-3.213
0.43
5.169
10.832
17.06
23.01
27.806
31.04
32.575
32.514
31.298
29.339
27.278
26.542
28.72
34.961
45.972
61.808
81.927
105.503
131.13
156.429
178.37
193.717
199.471
193.176
173.742
141.702
98
43.665
-21.858
-99.913
-188.497
-280.741
-364.321
-426.365
-459.986
-466.392
-454.24
-432.757
-407.181
-378.736
-345.238
-305.802
-262.522
-218.527
-177.709
-142.987
-115.155
-93.92
-78.408
-67.475
-59.924
-54.809
-51.03
-47.111
-42.238
-36.188
-28.937
-20.894
-12.593
-4.323
3.404
9.782
14.453
17.357
18.567
18.473
17.447
15.743
13.761
11.996
10.756
10.229
10.5
11.498
13.182
15.54
18.499
21.967
25.85
30.043
34.464
39.05
43.716
48.359
52.871
57.137
61.08
64.655
67.832
70.604
72.969
74.936
76.529
77.783
78.735
79.425
79.887
80.155
80.271
80.281
80.233
80.177
80.149
80.176
80.276
80.464
80.749
81.137
81.631
82.226
82.92
83.713
84.608
85.605
86.705
87.903
89.197
90.58
92.049
93.6
95.229
96.931
98.701
100.535
102.429
104.377
106.375
108.414
110.486
112.58
114.689
116.801
118.908
120.999
123.064
125.095
127.082
129.019
130.896
132.708
134.447
136.107
137.681
139.165
140.554
141.843
143.029
144.107
145.077
145.935
146.68
147.311
147.827
148.228
148.513
148.682
148.737
148.677
148.505
148.221
147.828
147.326
146.719
146.008
145.195
144.283
143.274
142.169
140.969
139.677
138.293
136.819
135.255
133.603
131.862
130.034
128.119
126.117
124.029
121.855
119.594
117.248
114.816
112.301
109.702
107.021
104.259
101.42
98.505
95.516
92.457
89.332
86.143
82.896
79.593
76.241
72.845
69.41
65.943
62.45
58.938
55.415
51.889
48.366
44.856
41.368
37.909
34.489
31.117
27.803
24.556
21.385
18.301
15.313
12.429
9.658
7.009
4.49
2.109
-0.129
-2.216
-4.146
-5.915
-7.516
-8.946
-10.202
-11.281
-12.181
-12.901
-13.439
-13.797
-13.975
-13.976
-13.8
-13.451
-12.932
-12.248
-11.404
-10.403
-9.254
-7.962
-6.534
-4.978
-3.303
-1.517
0.371
2.352
4.417
6.555
8.758
11.015
13.317
15.653
18.015
20.392
22.775
25.153
27.519
29.863
32.177
34.452
36.681
38.856
40.971
43.018
44.99
46.883
48.69
50.405
52.025
53.546
54.962
56.272
57.472
58.561
59.538
60.4
61.149
61.783
62.303
62.711
63.008
63.195
63.275
63.25
63.125
62.902
62.586
62.18
61.688
61.116
60.467
59.745
58.957
58.106
57.197
56.236
55.226
54.175
53.086
51.965
50.817
49.646
48.458
47.257
46.047
44.832
43.616
42.402
41.194
39.994
38.805
37.63
36.469
35.325
34.197
33.087
31.995
30.919
29.861
28.82
27.793
26.781
25.782
24.796
23.82
22.854
21.895
20.941
19.991
19.043
18.093
17.141
16.183
15.217
14.241
13.254
12.253
11.237
10.203
9.15
8.077
6.983
5.867
4.728
3.566
2.382
1.177
-0.05
-1.296
-2.559
-3.839
-5.132
-6.439
-7.755
-9.08
-10.411
-11.747
-13.085
-14.422
-15.756
-17.086
-18.407
-19.719
-21.018
-22.302
-23.569
-24.818
-26.044
-27.248
-28.427
-29.579
-30.703
-31.797
-32.859
-33.889
-34.886
-35.85
-36.781
-37.679
-38.545
-39.38
-40.184
-40.958
-41.705
-42.423
-43.114
-43.779
-44.418
-45.032
-45.621
-46.186
-46.728
-47.246
-47.741
-48.212
-48.659
-49.082
-49.478
-49.848
-50.189
-50.501
-50.781
-51.028
-51.24
-51.416
-51.553
-51.648
-51.7
-51.705
-51.66
-51.562
-51.407
-51.191
-50.912
-50.566
-50.152
-49.666
-49.108
-48.477
-47.77
-46.988
-46.13
-45.197
-44.19
-43.109
-41.958
-40.738
-39.454
-38.111
-36.713
-35.268
-33.78
-32.259
-30.71
-29.143
-27.566
-25.987
-24.415
-22.862
-21.338
-19.855
-18.424
-17.057
-15.766
-14.565
-13.464
-12.477
-11.612
-10.882
-10.294
-9.857
-9.58
-9.467
-9.524
-9.756
-10.167
-10.761
-11.54
-12.503
-13.649
-14.979
-16.487
-18.169
-20.017
-22.018
-24.16
-26.433
-28.829
-31.337
-33.948
-36.649
-39.424
-42.259
-45.139
-48.04
-50.936
-53.787
-56.559
-59.228
-61.777
-64.198
-66.482
-68.613
-70.575
-72.363
-73.966
-75.377
-76.588
-77.584
-78.362
-78.948
-79.384
-79.74
-80.093
-80.484
-80.939
-81.47
-82.076
-82.779
-83.605
-84.557
-85.629
-86.806
-88.054
-89.388
-90.857
-92.395
-93.813
-94.798
-94.999
-94.236
-92.55
-89.97
-86.345
-81.633
-76.049
-70.188
-64.938
-60.846
-57.84
-55.685
-54.433
-54.058
-54.242
-54.041
-51.741
-46.015
-36.482
-23.204
-6.289
13.794
36.036
58.458
77.926
91.182
95.424
88.281
67.563
32.968
-13.392
-69.216
-131.546
-200.503
-279.708
-367.777
-458.664
-539.553
-592.141
-607.559
-586.727
-539.612
-484.361
-432.276
-386.978
-347.993
-310.113
-271.833
-235.962
-204.989
-181.087
-164.459
-153.225
-145.344
-139.43
-134.21
-128.193
-120.572
-111.133
-99.968
-87.758
-75.314
-63.092
-51.718
-42.086
-34.639
-29.519
-26.7
-25.775
-26.32
-28.046
-30.536
-33.282
-35.943
-38.249
-40.005
-41.188
-41.77
-41.709
-41.034
-39.786
-38.002
-35.744
-33.069
-30.024
-26.685
-23.129
-19.437
-15.706
-12.027
-8.485
-5.171
-2.141
0.573
2.954
5.004
6.737
8.167
9.328
10.26
11.003
11.599
12.085
12.497
12.876
13.265
13.705
14.24
14.899
15.699
16.657
17.781
19.073
20.536
22.164
23.949
25.883
27.962
30.18
32.534
35.018
37.623
40.341
43.162
46.077
49.079
52.159
55.308
58.519
61.782
65.09
68.435
71.809
75.201
78.6
81.995
85.375
88.728
92.044
95.312
98.52
101.66
104.721
107.697
110.579
113.359
116.03
118.586
121.02
123.327
125.502
127.54
129.437
131.189
132.794
134.248
135.55
136.697
137.687
138.52
139.194
139.709
140.064
140.259
140.295
140.171
139.888
139.449
138.852
138.101
137.197
136.14
134.934
133.579
132.078
130.433
128.645
126.716
124.648
122.445
120.108
117.639
115.042
112.319
109.474
106.508
103.427
100.233
96.93
93.523
90.017
86.416
82.726
78.953
75.103
71.182
67.198
63.158
59.07
54.942
50.781
46.597
42.398
38.193
33.991
29.802
25.635
21.499
17.404
13.359
9.374
5.458
1.619
-2.132
-5.787
-9.337
-12.775
-16.092
-19.28
-22.332
-25.242
-28.004
-30.611
-33.059
-35.344
-37.462
-39.41
-41.186
-42.789
-44.218
-45.475
-46.558
-47.471
-48.214
-48.793
-49.208
-49.466
-49.57
-49.526
-49.34
-49.016
-48.563
-47.986
-47.293
-46.491
-45.587
-44.59
-43.506
-42.344
-41.111
-39.817
-38.468
-37.073
-35.639
-34.174
-32.685
-31.179
-29.664
-28.146
-26.63
-25.123
-23.63
-22.156
-20.707
-19.286
-17.898
-16.546
-15.235
-13.966
-12.744
-11.571
-10.448
-9.378
-8.363
-7.405
-6.504
-5.662
-4.88
-4.158
-3.499
-2.902
-2.368
-1.896
-1.488
-1.142
-0.86
-0.64
-0.482
-0.387
-0.352
-0.379
-0.465
-0.611
-0.814
-1.075
-1.39
-1.759
-2.18
-2.65
-3.169
-3.732
-4.339
-4.986
-5.672
-6.393
-7.146
-7.928
-8.737
-9.569
-10.42
-11.288
-12.169
-13.059
-13.955
-14.854
-15.751
-16.644
-17.53
-18.403
-19.263
-20.105
-20.925
-21.723
-22.493
-23.236
-23.947
-24.625
-25.269
-25.878
-26.451
-26.987
-27.486
-27.947
-28.371
-28.758
-29.109
-29.424
-29.705
-29.951
-30.165
-30.348
-30.5
-30.624
-30.721
-30.792
-30.838
-30.862
-30.864
-30.846
-30.809
-30.754
-30.683
-30.597
-30.498
-30.385
-30.26
-30.124
-29.976
-29.817
-29.647
-29.464
-29.269
-29.06
-28.836
-28.597
-28.341
-28.066
-27.772
-27.457
-27.119
-26.757
-26.37
-25.957
-25.517
-25.049
-24.552
-24.027
-23.472
-22.889
-22.278
-21.639
-20.974
-20.282
-19.567
-18.829
-18.069
-17.29
-16.495
-15.684
-14.863
-14.032
-13.197
-12.36
-11.525
-10.697
-9.879
-9.075
-8.29
-7.528
-6.793
-6.09
-5.422
-4.794
-4.208
-3.669
-3.179
-2.742
-2.358
-2.03
-1.758
-1.545
-1.388
-1.29
-1.247
-1.26
-1.327
-1.445
-1.613
-1.826
-2.081
-2.375
-2.703
-3.059
-3.439
-3.837
-4.247
-4.663
-5.077
-5.485
-5.877
-6.248
-6.59
-6.895
-7.156
-7.367
-7.52
-7.608
-7.624
-7.564
-7.42
-7.189
-6.866
-6.447
-5.928
-5.307
-4.581
-3.75
-2.813
-1.768
-0.616
0.64
2
3.459
5.015
6.663
8.399
10.216
12.109
14.071
16.094
18.171
20.294
22.452
24.637
26.839
29.045
31.246
33.431
35.588
37.705
39.772
41.777
43.709
45.559
47.314
48.964
50.501
51.914
53.194
54.333
55.32
56.148
56.81
57.301
57.615
57.749
57.699
57.467
57.053
56.46
55.688
54.741
53.621
52.331
50.877
49.268
47.511
45.618
43.6
41.472
39.251
36.953
34.59
32.172
29.703
27.191
24.65
22.093
19.534
16.996
14.497
12.065
9.732
7.518
5.436
3.496
1.698
0.053
-1.43
-2.74
-3.865
-4.791
-5.51
-6.019
-6.327
-6.465
-6.474
-6.403
-6.307
-6.224
-6.185
-6.229
-6.396
-6.731
-7.253
-7.978
-8.939
-10.132
-11.505
-12.936
-14.186
-14.988
-15.139
-14.471
-12.859
-10.384
-7.26
-3.851
-0.743
1.487
2.359
1.589
-0.825
-4.472
-8.648
-12.482
-14.881
-14.695
-10.715
-2.058
11.651
30.189
52.756
78.364
105.704
132.922
157.499
176.808
188.49
190.7
182.017
160.96
126.602
78.988
20.297
-45.453
-115.37
-187.053
-258.787
-330.315
-396.64
-450.564
-487.105
-499.8
-488.062
-455.908
-405.242
-342.391
-275.033
-210.839
-159.731
-126.858
-110.655
-104.433
-100.07
-92.729
-82.09
-71.623
-63.847
-58.404
-53.721
-47.493
-38.707
-28.048
-16.499
-5.025
5.546
14.498
21.374
26.008
28.476
29.145
28.427
26.631
24.15
21.47
18.954
16.878
15.403
14.527
14.247
14.584
15.516
16.998
18.981
21.389
24.153
27.224
30.535
34.021
37.601
41.173
44.633
47.886
50.862
53.52
55.836
57.796
59.397
60.648
61.574
62.216
62.612
62.796
62.804
62.663
62.412
62.096
61.758
61.441
61.176
60.985
60.885
60.889
61.005
61.237
61.585
62.041
62.6
63.263
64.028
64.896
65.865
66.93
68.09
69.338
70.673
72.091
73.59
75.165
76.815
78.535
80.325
82.18
84.099
86.074
88.101
90.173
92.283
94.424
96.588
98.769
100.959
103.15
105.336
107.51
109.666
111.795
113.892
115.95
117.961
119.921
121.821
123.656
125.419
127.104
128.704
130.214
131.625
132.934
134.133
135.217
136.181
137.019
137.726
138.298
138.731
139.02
139.162
139.154
138.993
138.675
138.198
137.562
136.764
135.802
134.678
133.389
131.936
130.32
128.542
126.603
124.505
122.252
119.846
117.29
114.59
111.751
108.777
105.675
102.452
99.114
95.67
92.128
88.496
84.783
80.998
77.151
73.25
69.307
65.331
61.333
57.323
53.312
49.31
45.329
41.377
37.467
33.608
29.809
26.082
22.434
18.875
15.413
12.057
8.813
5.69
2.694
-0.17
-2.896
-5.479
-7.917
-10.206
-12.342
-14.325
-16.153
-17.826
-19.342
-20.704
-21.912
-22.968
-23.875
-24.635
-25.252
-25.731
-26.077
-26.294
-26.39
-26.369
-26.239
-26.007
-25.68
-25.266
-24.771
-24.205
-23.575
-22.888
-22.154
-21.379
-20.572
-19.74
-18.89
-18.029
-17.165
-16.303
-15.451
-14.613
-13.796
-13.005
-12.246
-11.522
-10.838
-10.199
-9.607
-9.065
-8.576
-8.143
-7.766
-7.446
-7.185
-6.982
-6.837
-6.749
-6.717
-6.739
-6.814
-6.939
-7.112
-7.331
-7.592
-7.893
-8.231
-8.602
-9.005
-9.436
-9.892
-10.37
-10.867
-11.38
-11.906
-12.444
-12.989
-13.539
-14.092
-14.646
-15.199
-15.748
-16.292
-16.829
-17.359
-17.88
-18.393
-18.895
-19.389
-19.874
-20.35
-20.819
-21.282
-21.739
-22.191
-22.641
-23.089
-23.537
-23.986
-24.437
-24.892
-25.352
-25.818
-26.292
-26.774
-27.266
-27.768
-28.281
-28.807
-29.344
-29.895
-30.459
-31.036
-31.627
-32.231
-32.847
-33.476
-34.117
-34.768
-35.427
-36.094
-36.765
-37.44
-38.116
-38.79
-39.461
-40.125
-40.781
-41.427
-42.059
-42.677
-43.277
-43.859
-44.419
-44.957
-45.47
-45.957
-46.417
-46.849
-47.252
-47.625
-47.968
-48.28
-48.561
-48.812
-49.031
-49.219
-49.378
-49.506
-49.606
-49.679
-49.726
-49.749
-49.749
-49.73
-49.692
-49.638
-49.57
-49.49
-49.399
-49.301
-49.195
-49.085
-48.971
-48.855
-48.738
-48.622
-48.506
-48.392
-48.28
-48.171
-48.063
-47.958
-47.854
-47.751
-47.648
-47.545
-47.442
-47.337
-47.228
-47.117
-47
-46.876
-46.745
-46.604
-46.453
-46.289
-46.112
-45.919
-45.711
-45.486
-45.245
-44.985
-44.708
-44.413
-44.101
-43.772
-43.427
-43.066
-42.691
-42.303
-41.905
-41.499
-41.086
-40.669
-40.252
-39.836
-39.424
-39.02
-38.627
-38.246
-37.881
-37.535
-37.21
-36.909
-36.635
-36.39
-36.176
-35.995
-35.848
-35.736
-35.66
-35.62
-35.615
-35.646
-35.71
-35.808
-35.936
-36.093
-36.277
-36.485
-36.713
-36.958
-37.216
-37.483
-37.753
-38.022
-38.285
-38.537
-38.772
-38.984
-39.167
-39.317
-39.428
-39.494
-39.509
-39.468
-39.366
-39.198
-38.96
-38.648
-38.259
-37.791
-37.241
-36.608
-35.891
-35.091
-34.208
-33.242
-32.195
-31.07
-29.869
-28.594
-27.251
-25.842
-24.374
-22.852
-21.281
-19.67
-18.024
-16.352
-14.661
-12.961
-11.26
-9.567
-7.893
-6.247
-4.641
-3.085
-1.592
-0.171
1.166
2.409
3.547
4.573
5.479
6.26
6.91
7.425
7.799
8.029
8.112
8.042
7.818
7.437
6.899
6.205
5.358
4.366
3.234
1.97
0.578
-0.94
-2.58
-4.334
-6.195
-8.153
-10.19
-12.288
-14.422
-16.56
-18.678
-20.751
-22.759
-24.691
-26.535
-28.28
-29.914
-31.42
-32.781
-33.988
-35.038
-35.931
-36.687
-37.334
-37.908
-38.466
-39.054
-39.702
-40.447
-41.32
-42.347
-43.567
-45.01
-46.695
-48.677
-51.006
-53.653
-56.528
-59.451
-62.15
-64.42
-66.092
-66.938
-66.774
-65.603
-63.617
-61.253
-59.064
-57.377
-56.326
-56.084
-56.753
-58.147
-59.738
-60.595
-59.709
-56.467
-50.565
-41.628
-29.205
-13.138
6.283
28.223
51.68
75.947
100.399
123.908
144.605
160.525
169.97
171.428
163.38
144.124
112.06
67.61
13.765
-46.621
-111.576
-181.838
-259.672
-342.831
-423.624
-489.183
-526.701
-531.138
-506.308
-463.788
-416.006
-370.076
-327.841
-287.026
-245.85
-205.652
-169.391
-140.074
-118.791
-104.582
-95.537
-89.511
-84.864
-80.123
-73.957
-65.742
-55.369
-43.158
-29.917
-16.496
-3.669
7.659
16.812
23.542
27.815
29.854
30.085
28.911
26.764
24.171
21.52
19.058
16.983
15.384
14.3
13.782
13.824
14.371
15.392
16.848
18.686
20.869
23.33
25.984
28.752
31.555
34.308
36.938
39.368
41.52
43.346
44.822
45.936
46.7
47.13
47.247
47.088
46.697
46.116
45.39
44.559
43.659
42.731
41.812
40.942
40.162
39.5
38.977
38.607
38.399
38.361
38.495
38.801
39.271
39.901
40.689
41.632
42.729
43.976
45.368
46.899
48.561
50.348
52.254
54.27
56.388
58.602
60.902
63.281
65.731
68.246
70.814
73.426
76.072
78.742
81.426
84.114
86.796
89.462
92.105
94.714
97.284
99.806
102.273
104.679
107.015
109.277
111.458
113.553
115.555
117.459
119.262
120.958
122.544
124.016
125.372
126.609
127.726
128.72
129.59
130.337
130.958
131.453
131.822
132.065
132.182
132.173
132.037
131.777
131.392
130.883
130.251
129.496
128.619
127.621
126.504
125.268
123.916
122.449
120.87
119.182
117.387
115.489
113.49
111.396
109.21
106.936
104.578
102.142
99.631
97.051
94.408
91.706
88.952
86.152
83.312
80.438
77.537
74.616
71.681
68.74
65.8
62.868
59.951
57.058
54.194
51.369
48.589
45.861
43.192
40.59
38.06
35.609
33.242
30.966
28.785
26.705
24.73
22.864
21.111
19.475
17.958
16.563
15.292
14.146
13.126
12.233
11.467
10.827
10.313
9.922
9.654
9.505
9.472
9.553
9.744
10.039
10.435
10.926
11.507
12.172
12.916
13.732
14.614
15.554
16.548
17.586
18.664
19.772
20.906
22.057
23.219
24.384
25.547
26.701
27.839
28.955
30.043
31.098
32.114
33.086
34.008
34.878
35.689
36.439
37.124
37.74
38.286
38.758
39.155
39.475
39.717
39.88
39.965
39.97
39.897
39.746
39.517
39.214
38.836
38.387
37.868
37.281
36.628
35.913
35.139
34.306
33.42
32.482
31.496
30.464
29.39
28.277
27.128
25.947
24.735
23.497
22.235
20.953
19.653
18.338
17.011
15.675
14.332
12.984
11.634
10.284
8.935
7.59
6.25
4.917
3.591
2.276
0.972
-0.319
-1.596
-2.857
-4.101
-5.325
-6.529
-7.71
-8.868
-10.001
-11.107
-12.184
-13.231
-14.247
-15.231
-16.179
-17.093
-17.97
-18.809
-19.609
-20.37
-21.09
-21.769
-22.405
-22.999
-23.549
-24.056
-24.517
-24.934
-25.306
-25.632
-25.914
-26.152
-26.346
-26.498
-26.609
-26.68
-26.714
-26.711
-26.674
-26.606
-26.509
-26.384
-26.236
-26.067
-25.879
-25.676
-25.46
-25.233
-24.999
-24.76
-24.518
-24.276
-24.035
-23.798
-23.567
-23.343
-23.129
-22.925
-22.735
-22.558
-22.395
-22.248
-22.116
-21.999
-21.898
-21.81
-21.736
-21.674
-21.622
-21.579
-21.542
-21.51
-21.48
-21.449
-21.416
-21.377
-21.329
-21.271
-21.199
-21.111
-21.005
-20.879
-20.731
-20.56
-20.363
-20.14
-19.888
-19.608
-19.297
-18.955
-18.581
-18.175
-17.736
-17.264
-16.76
-16.224
-15.657
-15.061
-14.438
-13.788
-13.113
-12.415
-11.697
-10.959
-10.204
-9.434
-8.651
-7.857
-7.053
-6.242
-5.424
-4.602
-3.775
-2.943
-2.108
-1.27
-0.427
0.42
1.272
2.13
2.993
3.863
4.739
5.622
6.514
7.414
8.324
9.245
10.177
11.123
12.083
13.059
14.05
15.056
16.077
17.114
18.165
19.229
20.305
21.39
22.484
23.582
24.683
25.781
26.873
27.953
29.016
30.056
31.066
32.037
32.963
33.836
34.649
35.395
36.068
36.662
37.172
37.594
37.925
38.161
38.297
38.327
38.247
38.056
37.752
37.336
36.807
36.171
35.432
34.6
33.682
32.683
31.605
30.446
29.207
27.895
26.519
25.09
23.62
22.126
20.629
19.158
17.734
16.372
15.074
13.837
12.67
11.584
10.595
9.722
8.975
8.359
7.884
7.548
7.338
7.226
7.165
7.108
7.014
6.854
6.612
6.266
5.774
5.11
4.231
3.076
1.675
0.088
-1.579
-3.092
-4.242
-4.847
-4.622
-3.35
-1.084
1.972
5.363
8.394
10.593
11.539
10.658
7.699
2.873
-3.238
-9.477
-14.448
-17.104
-16.29
-10.63
0.775
18.272
41.472
69.06
99.415
130.852
161.005
186.871
205.407
213.814
210.133
193.227
162.368
117.528
59.912
-7.96
-82.53
-159.809
-236.013
-307.283
-369.776
-420.238
-456.299
-476.966
-482.571
-474.043
-452.742
-420.997
-381.714
-337.935
-292.747
-248.519
-206.956
-169.793
-138.429
-113.26
-94.04
-80.042
-70.097
-63.266
-58.715
-55.136
-51.257
-46.423
-40.388
-33.302
-25.615
-17.643
-9.715
-2.503
3.283
7.267
9.358
9.748
8.784
6.749
3.947
0.8
-2.218
-4.749
-6.599
-7.713
-8.129
-7.88
-6.99
-5.51
-3.538
-1.168
1.515
4.435
7.543
10.78
14.053
17.268
20.331
23.15
25.674
27.877
29.739
31.261
32.457
33.346
33.959
34.341
34.528
34.557
34.463
34.274
34.029
33.767
33.529
33.353
33.268
33.289
33.429
33.696
34.092
34.617
35.269
36.036
36.914
37.899
38.988
40.18
41.47
42.855
44.327
45.883
47.517
49.224
51.001
52.844
54.747
56.707
58.721
60.786
62.897
65.05
67.24
69.46
71.705
73.969
76.249
78.537
80.828
83.119
85.403
87.676
89.934
92.173
94.386
96.569
98.718
100.826
102.888
104.899
106.852
108.741
110.56
112.301
113.959
115.525
116.994
118.358
119.61
120.744
121.753
122.63
123.368
123.962
124.404
124.688
124.808
124.759
124.534
124.128
123.538
122.757
121.783
120.612
119.241
117.668
115.893
113.914
111.733
109.35
106.77
103.994
101.029
97.88
94.555
91.061
87.408
83.606
79.667
75.602
71.424
67.146
62.783
58.349
53.86
49.331
44.779
40.221
35.672
31.15
26.671
22.253
17.913
13.666
9.528
5.516
1.643
-2.074
-5.623
-8.99
-12.164
-15.133
-17.887
-20.418
-22.718
-24.78
-26.6
-28.174
-29.5
-30.576
-31.404
-31.985
-32.32
-32.415
-32.275
-31.906
-31.315
-30.51
-29.502
-28.299
-26.915
-25.359
-23.645
-21.785
-19.792
-17.681
-15.465
-13.159
-10.776
-8.332
-5.84
-3.316
-0.774
1.774
4.312
6.829
9.312
11.749
14.129
16.442
18.678
20.829
22.886
24.844
26.695
28.434
30.058
31.563
32.946
34.207
35.343
36.357
37.247
38.017
38.666
39.199
39.619
39.929
40.133
40.237
40.245
40.164
39.998
39.755
39.441
39.061
38.624
38.136
37.603
37.033
36.431
35.804
35.16
34.502
33.839
33.174
32.512
31.859
31.217
30.591
29.983
29.396
28.833
28.294
27.782
27.298
26.843
26.416
26.02
25.652
25.314
25.004
24.722
24.466
24.235
24.028
23.843
23.678
23.53
23.398
23.279
23.17
23.069
22.972
22.878
22.783
22.685
22.581
22.47
22.349
22.217
22.072
21.913
21.739
21.549
21.343
21.12
20.88
20.622
20.347
20.054
19.744
19.416
19.072
18.711
18.334
17.942
17.534
17.112
16.675
16.226
15.765
15.293
14.811
14.32
13.823
13.319
12.81
12.298
11.783
11.266
10.748
10.229
9.71
9.19
8.671
8.151
7.63
7.108
6.586
6.061
5.534
5.004
4.47
3.933
3.392
2.847
2.297
1.743
1.184
0.622
0.055
-0.516
-1.09
-1.668
-2.247
-2.829
-3.412
-3.995
-4.577
-5.156
-5.73
-6.298
-6.858
-7.407
-7.942
-8.46
-8.959
-9.434
-9.882
-10.3
-10.683
-11.027
-11.329
-11.583
-11.788
-11.938
-12.031
-12.062
-12.028
-11.927
-11.755
-11.508
-11.186
-10.784
-10.3
-9.734
-9.084
-8.348
-7.527
-6.621
-5.63
-4.556
-3.399
-2.161
-0.846
0.543
2.004
3.532
5.122
6.769
8.466
10.209
11.989
13.799
15.634
17.485
19.345
21.206
23.061
24.9
26.717
28.503
30.248
31.943
33.58
35.15
36.643
38.052
39.368
40.585
41.696
42.696
43.581
44.347
44.99
45.509
45.9
46.162
46.294
46.297
46.17
45.914
45.53
45.022
44.396
43.659
42.815
41.868
40.817
39.667
38.425
37.1
35.702
34.242
32.732
31.192
29.651
28.138
26.681
25.303
24.017
22.836
21.773
20.842
20.064
19.448
18.985
18.667
18.479
18.4
18.406
18.449
18.449
18.32
17.976
17.341
16.369
15.022
13.269
11.078
8.397
5.199
1.502
-2.646
-7.174
-12.026
-17.184
-22.528
-27.791
-32.597
-36.552
-39.419
-41.151
-41.679
-40.837
-38.564
-35.063
-30.935
-26.98
-23.655
-20.974
-18.821
-17.175
-15.967
-14.772
-12.437
-7.44
1.286
14.118
30.929
51.404
74.965
100.269
124.838
145.552
159.264
163.179
155.055
132.775
95.759
45.732
-15.006
-83.388
-158.897
-243.878
-336.233
-430.448
-515.108
-574.236
-601.035
-595.509
-564.103
-518.984
-465.249
-405.379
-343.26
-283.02
-232.955
-199.496
-182.165
-175.074
-170.538
-163.907
-154.922
-146.668
-141.287
-137.873
-134.498
-129.053
-120.663
-110.049
-98.249
-86.161
-74.646
-64.645
-56.758
-51.215
-47.994
-46.731
-47.011
-48.546
-50.936
-53.662
-56.353
-58.754
-60.695
-62.155
-63.117
-63.528
-63.398
-62.773
-61.689
-60.198
-58.347
-56.166
-53.709
-51.043
-48.23
-45.346
-42.467
-39.659
-36.993
-34.538
-32.336
-30.416
-28.791
-27.452
-26.385
-25.57
-24.973
-24.558
-24.29
-24.134
-24.057
-24.031
-24.026
-24.009
-23.951
-23.82
-23.596
-23.263
-22.812
-22.243
-21.555
-20.753
-19.844
-18.843
-17.759
-16.603
-15.384
-14.107
-12.784
-11.422
-10.035
-8.632
-7.225
-5.822
-4.436
-3.074
-1.746
-0.461
0.774
1.952
3.067
4.113
5.082
5.968
6.766
7.47
8.076
8.58
8.978
9.27
9.453
