Name,Enes Ozkan
Date of Birth,"5 Nov 2001"
Recorded Date,2023-05-09 19:16:50 +0000
Classification,Sinus Rhythm
Symptoms,
Software Version,1.90
Device,"Watch6,14"
Sample Rate,512 hertz


Lead,Lead I
Unit,µV

-29.472
-26.783
-23.893
-20.81
-17.54
-14.094
-10.481
-6.713
-2.803
1.236
5.39
9.642
13.977
18.378
22.828
27.309
31.803
36.293
40.76
45.187
49.555
53.847
58.046
62.134
66.095
69.912
73.568
77.048
80.338
83.422
86.288
88.922
91.314
93.452
95.326
96.929
98.253
99.29
100.037
100.487
100.639
100.489
100.037
99.283
98.229
96.876
95.228
93.289
91.065
88.559
85.781
82.736
79.434
75.882
72.092
68.074
63.84
59.402
54.774
49.969
45.002
39.888
34.643
29.282
23.823
18.283
12.678
7.026
1.346
-4.345
-10.028
-15.685
-21.298
-26.849
-32.322
-37.697
-42.959
-48.091
-53.077
-57.9
-62.547
-67.002
-71.252
-75.283
-79.084
-82.642
-85.947
-88.991
-91.765
-94.262
-96.477
-98.406
-100.044
-101.391
-102.445
-103.207
-103.68
-103.867
-103.772
-103.402
-102.765
-101.869
-100.724
-99.341
-97.732
-95.909
-93.886
-91.677
-89.297
-86.761
-84.085
-81.286
-78.38
-75.384
-72.315
-69.19
-66.025
-62.838
-59.644
-56.459
-53.299
-50.178
-47.11
-44.108
-41.186
-38.355
-35.625
-33.007
-30.508
-28.137
-25.9
-23.8
-21.843
-20.03
-18.362
-16.841
-15.465
-14.232
-13.14
-12.186
-11.364
-10.67
-10.098
-9.64
-9.291
-9.041
-8.884
-8.81
-8.811
-8.878
-9.003
-9.176
-9.389
-9.632
-9.897
-10.174
-10.455
-10.732
-10.996
-11.241
-11.459
-11.643
-11.789
-11.891
-11.945
-11.947
-11.893
-11.783
-11.613
-11.383
-11.091
-10.737
-10.322
-9.847
-9.312
-8.72
-8.072
-7.37
-6.616
-5.813
-4.963
-4.07
-3.134
-2.16
-1.149
-0.106
0.967
2.067
3.19
4.333
5.493
6.667
7.851
9.045
10.244
11.447
12.652
13.856
15.058
16.257
17.452
18.64
19.821
20.994
22.157
23.312
24.455
25.587
26.706
27.812
28.903
29.977
31.032
32.067
33.08
34.067
35.028
35.96
36.859
37.726
38.556
39.348
40.1
40.809
41.472
42.088
42.654
43.167
43.626
44.029
44.373
44.657
44.879
45.037
45.131
45.159
45.12
45.014
44.842
44.602
44.297
43.927
43.495
43.004
42.456
41.855
41.206
40.513
39.78
39.014
38.218
37.4
36.564
35.718
34.866
34.017
33.176
32.35
31.547
30.771
30.031
29.331
28.679
28.08
27.54
27.063
26.655
26.32
26.062
25.885
25.792
25.784
25.863
26.029
26.282
26.62
27.041
27.541
28.117
28.765
29.477
30.25
31.075
31.947
32.856
33.795
34.755
35.725
36.696
37.658
38.6
39.51
40.379
41.195
41.946
42.623
43.215
43.71
44.098
44.369
44.512
44.519
44.382
44.089
43.635
43.012
42.214
41.238
40.082
38.744
37.224
35.526
33.654
31.614
29.411
27.049
24.536
21.881
19.093
16.185
13.169
10.061
6.877
3.641
0.372
-2.912
-6.197
-9.474
-12.732
-15.953
-19.122
-22.221
-25.225
-28.113
-30.858
-33.422
-35.777
-37.903
-39.79
-41.445
-42.865
-44.037
-44.949
-45.589
-45.949
-46.041
-45.867
-45.434
-44.776
-43.941
-43
-42.044
-41.129
-40.301
-39.605
-39.063
-38.725
-38.664
-38.906
-39.498
-40.501
-41.868
-43.515
-45.299
-46.888
-47.985
-48.347
-47.604
-45.522
-42.193
-37.841
-32.992
-28.452
-24.74
-22.335
-21.945
-23.855
-27.79
-33.156
-38.739
-43.032
-44.972
-43.307
-36.343
-23.065
-3.32
22.658
53.858
88.49
124.933
159.873
187.662
204.737
209.158
200.179
181.221
152.632
110.09
50.345
-33.374
-145.056
-278.493
-423.129
-560.779
-669.08
-734.268
-752.613
-730.708
-684.749
-630.274
-575.601
-523.532
-471.698
-416.578
-358.686
-300.8
-246.531
-199.181
-159.4
-126.164
-98.159
-73.94
-52.797
-34.431
-18.306
-4.233
7.785
17.749
25.373
30.354
32.781
32.887
31.033
27.972
24.353
20.648
17.544
15.743
15.656
17.488
21.057
25.727
31.032
36.725
42.403
47.607
52.049
55.575
58.379
61.026
63.859
66.972
70.481
74.473
78.952
83.897
89.091
94.11
98.687
102.714
106.128
108.951
111.206
112.888
114.058
114.838
115.319
115.569
115.636
115.528
115.283
114.96
114.619
114.327
114.133
114.065
114.148
114.403
114.843
115.481
116.32
117.356
118.591
120.029
121.677
123.544
125.634
127.947
130.479
133.221
136.169
139.318
142.663
146.198
149.916
153.81
157.871
162.094
166.466
170.976
175.608
180.346
185.172
190.071
195.025
200.016
205.026
210.036
215.028
219.983
224.881
229.703
234.43
239.041
243.516
247.836
251.983
255.936
259.679
263.193
266.463
269.473
272.208
274.655
276.802
278.637
280.151
281.335
282.183
282.688
282.847
282.656
282.113
281.219
279.973
278.377
276.436
274.153
271.533
268.585
265.315
261.734
257.851
253.68
249.232
244.523
239.567
234.381
228.982
223.389
217.62
211.695
205.633
199.455
193.181
186.831
180.426
173.986
167.531
161.079
154.65
148.261
141.931
135.677
129.514
123.458
117.523
111.725
106.074
100.583
95.264
90.126
85.177
80.425
75.877
71.537
67.41
63.497
59.801
56.321
53.056
50.004
47.162
44.526
42.09
39.848
37.794
35.921
34.22
32.684
31.304
30.072
28.979
28.016
27.174
26.445
25.819
25.288
24.844
24.479
24.183
23.95
23.771
23.639
23.548
23.491
23.461
23.454
23.464
23.487
23.519
23.556
23.596
23.636
23.675
23.712
23.746
23.777
23.805
23.83
23.854
23.877
23.901
23.927
23.956
23.99
24.03
24.078
24.136
24.204
24.285
24.38
24.49
24.618
24.765
24.933
25.122
25.336
25.575
25.842
26.138
26.464
26.822
27.212
27.637
28.096
28.591
29.122
29.689
30.293
30.933
31.609
32.32
33.067
33.848
34.662
35.508
36.386
37.294
38.232
39.197
40.189
41.206
42.248
43.311
44.394
45.496
46.613
47.744
48.885
50.034
51.187
52.34
53.492
54.638
55.775
56.899
58.007
59.095
60.161
61.201
62.213
63.194
64.143
65.057
65.936
66.779
67.585
68.355
69.089
69.786
70.448
71.075
71.667
72.227
72.755
73.254
73.726
74.173
74.598
75.004
75.395
75.775
76.147
76.517
76.887
77.261
77.645
78.042
78.456
78.891
79.349
79.835
80.35
80.895
81.471
82.078
82.715
83.378
84.065
84.772
85.494
86.228
86.969
87.71
88.448
89.177
89.893
90.59
91.263
91.905
92.509
93.069
93.578
94.027
94.41
94.719
94.947
95.089
95.141
95.103
94.971
94.743
94.414
93.978
93.438
92.796
92.056
91.223
90.307
89.318
88.278
87.209
86.132
85.063
84.008
82.969
81.942
80.931
79.945
78.989
78.06
77.143
76.224
75.293
74.341
73.346
72.257
71.003
69.522
67.762
65.701
63.348
60.706
57.763
54.497
50.881
46.914
42.644
38.103
33.284
28.242
23.094
18.081
13.598
10.003
7.557
6.435
6.715
8.279
10.892
14.15
17.371
19.869
20.996
20.297
17.73
13.71
8.9
4.101
0.412
-0.911
1.579
9.214
22.562
41.231
64.549
91.685
120.947
150.189
175.672
191.842
195.708
186.283
163.802
132.905
94.712
45.378
-17.846
-103.119
-214.729
-343.355
-476.732
-594.242
-673.97
-711.927
-710.797
-680.895
-637.622
-582.807
-516.829
-440.766
-357.068
-280.879
-223.101
-188.929
-177.339
-172.193
-162.957
-144.809
-115.759
-86.92
-65.18
-51.619
-47.874
-48.122
-47.756
-46.456
-43.051
-38.566
-34.288
-30.124
-26.363
-23.408
-21.652
-21.331
-22.419
-24.736
-27.927
-31.672
-35.706
-39.577
-42.807
-45.153
-46.488
-46.834
-46.335
-45.072
-43.113
-40.584
-37.624
-34.368
-30.934
-27.407
-23.861
-20.387
-17.085
-14.058
-11.377
-9.078
-7.174
-5.653
-4.488
-3.652
-3.102
-2.785
-2.653
-2.656
-2.748
-2.891
-3.042
-3.155
-3.187
-3.09
-2.831
-2.39
-1.752
-0.912
0.13
1.372
2.809
4.427
6.218
8.174
10.289
12.56
14.979
17.538
20.228
23.04
25.965
28.996
32.125
35.344
38.646
42.024
45.472
48.983
52.549
56.161
59.809
63.482
67.169
70.86
74.544
78.209
81.844
85.438
88.98
92.46
95.867
99.189
102.415
105.534
108.535
111.408
114.141
116.724
119.147
121.398
123.467
125.345
127.02
128.483
129.725
130.735
131.506
132.029
132.295
132.298
132.032
131.489
130.667
129.559
128.164
126.478
124.501
122.231
119.67
116.82
113.684
110.266
106.571
102.606
98.379
93.899
89.176
84.221
79.046
73.665
68.091
62.34
56.429
50.375
44.196
37.911
31.541
25.104
18.622
12.115
5.605
-0.887
-7.34
-13.734
-20.047
-26.26
-32.353
-38.306
-44.103
-49.726
-55.158
-60.385
-65.394
-70.171
-74.705
-78.987
-83.008
-86.761
-90.238
-93.436
-96.351
-98.981
-101.326
-103.385
-105.162
-106.659
-107.881
-108.835
-109.528
-109.967
-110.162
-110.124
-109.862
-109.39
-108.719
-107.862
-106.832
-105.644
-104.31
-102.846
-101.264
-99.579
-97.803
-95.95
-94.033
-92.063
-90.053
-88.014
-85.957
-83.893
-81.83
-79.78
-77.75
-75.749
-73.784
-71.862
-69.988
-68.169
-66.408
-64.71
-63.077
-61.513
-60.018
-58.595
-57.243
-55.964
-54.756
-53.618
-52.549
-51.548
-50.613
-49.741
-48.931
-48.181
-47.487
-46.849
-46.264
-45.729
-45.242
-44.802
-44.405
-44.049
-43.731
-43.45
-43.203
-42.987
-42.801
-42.641
-42.506
-42.393
-42.301
-42.227
-42.169
-42.127
-42.097
-42.079
-42.072
-42.073
-42.083
-42.1
-42.123
-42.15
-42.182
-42.217
-42.253
-42.289
-42.324
-42.357
-42.385
-42.408
-42.424
-42.432
-42.43
-42.418
-42.395
-42.359
-42.31
-42.249
-42.173
-42.085
-41.983
-41.868
-41.741
-41.602
-41.453
-41.294
-41.127
-40.952
-40.771
-40.584
-40.394
-40.202
-40.009
-39.817
-39.629
-39.445
-39.269
-39.103
-38.948
-38.808
-38.685
-38.581
-38.5
-38.442
-38.411
-38.408
-38.435
-38.494
-38.587
-38.713
-38.873
-39.069
-39.298
-39.561
-39.857
-40.185
-40.543
-40.93
-41.344
-41.782
-42.243
-42.723
-43.221
-43.733
-44.256
-44.786
-45.321
-45.857
-46.389
-46.914
-47.429
-47.928
-48.409
-48.866
-49.297
-49.696
-50.061
-50.387
-50.672
-50.912
-51.106
-51.251
-51.346
-51.389
-51.379
-51.316
-51.201
-51.033
-50.812
-50.541
-50.22
-49.85
-49.434
-48.974
-48.471
-47.929
-47.349
-46.736
-46.091
-45.418
-44.72
-44
-43.261
-42.507
-41.741
-40.965
-40.183
-39.398
-38.612
-37.828
-37.046
-36.269
-35.498
-34.732
-33.972
-33.216
-32.465
-31.716
-30.968
-30.219
-29.465
-28.704
-27.933
-27.148
-26.346
-25.522
-24.671
-23.79
-22.874
-21.917
-20.916
-19.864
-18.757
-17.592
-16.362
-15.066
-13.697
-12.254
-10.733
-9.13
-7.445
-5.676
-3.821
-1.88
0.145
2.253
4.441
6.706
9.044
11.449
13.916
16.439
19.01
21.622
24.267
26.935
29.617
32.303
34.981
37.64
40.267
42.849
45.371
47.822
50.189
52.457
54.617
56.655
58.56
60.324
61.936
63.386
64.666
65.767
66.681
67.401
67.922
68.241
68.355
68.265
67.971
67.476
66.786
65.906
64.841
63.595
62.172
60.581
58.837
56.955
54.958
52.867
50.704
48.501
46.287
44.094
41.949
39.877
37.89
36
34.222
32.579
31.09
29.764
28.594
27.567
26.667
25.878
25.175
24.51
23.819
23.039
22.107
20.971
19.607
17.996
16.129
13.998
11.587
8.889
5.926
2.745
-0.595
-4.013
-7.456
-10.868
-14.09
-16.857
-18.8
-19.556
-18.952
-16.984
-13.633
-8.771
-2.403
5.131
13.018
20.271
26.327
31.13
34.804
37.3
38.635
39.415
41.085
45.523
54.095
67.208
84.651
106.117
130.955
157.394
182.458
202.414
213.469
212.643
197.613
166.031
117.445
54.321
-20.175
-101.886
-189.458
-285.242
-386.93
-488.693
-578.24
-638.02
-660.465
-644.346
-596.105
-531.197
-457.242
-380.68
-308.572
-241.559
-185.416
-143.792
-113.26
-92.033
-75.398
-60.157
-48.432
-40.963
-37.857
-37.732
-36.927
-33.576
-27.526
-19.297
-10.151
-0.866
8.169
16.096
22.014
25.488
26.497
25.415
22.817
19.181
14.908
10.515
6.562
3.413
1.244
0.08
-0.172
0.41
1.778
3.843
6.48
9.572
13.003
16.674
20.513
24.417
28.268
31.948
35.342
38.37
40.994
43.193
44.962
46.315
47.271
47.867
48.152
48.174
47.981
47.622
47.137
46.578
45.996
45.445
44.977
44.63
44.428
44.388
44.522
44.836
45.332
46.009
46.858
47.875
49.058
50.404
51.915
53.587
55.416
57.396
59.523
61.79
64.195
66.733
69.398
72.189
75.099
78.125
81.263
84.51
87.857
91.296
94.821
98.42
102.087
105.811
109.582
113.391
117.227
121.082
124.946
128.809
132.66
136.49
140.288
144.043
147.743
151.378
154.937
158.406
161.776
165.035
168.171
171.173
174.031
176.735
179.273
181.637
183.817
185.803
187.586
189.158
190.511
191.638
192.531
193.183
193.59
193.747
193.648
193.29
192.671
191.788
190.641
189.228
187.551
185.611
183.412
180.957
178.252
175.303
172.117
168.703
165.071
161.23
157.192
152.968
148.571
144.014
139.309
134.472
129.517
124.458
119.312
114.092
108.816
103.498
98.155
92.803
87.456
82.132
76.843
71.606
66.435
61.343
56.343
51.448
46.671
42.02
37.507
33.14
28.928
24.877
20.993
17.281
13.746
10.39
7.215
4.224
1.416
-1.208
-3.649
-5.909
-7.99
-9.895
-11.628
-13.194
-14.596
-15.84
-16.934
-17.882
-18.692
-19.371
-19.928
-20.369
-20.702
-20.937
-21.082
-21.144
-21.133
-21.055
-20.92
-20.735
-20.508
-20.247
-19.957
-19.646
-19.32
-18.986
-18.648
-18.314
-17.988
-17.676
-17.381
-17.109
-16.865
-16.651
-16.472
-16.33
-16.229
-16.17
-16.157
-16.19
-16.27
-16.399
-16.577
-16.803
-17.077
-17.399
-17.768
-18.181
-18.639
-19.137
-19.675
-20.251
-20.862
-21.505
-22.179
-22.881
-23.607
-24.355
-25.123
-25.907
-26.704
-27.511
-28.324
-29.141
-29.958
-30.772
-31.579
-32.378
-33.164
-33.936
-34.69
-35.425
-36.138
-36.829
-37.494
-38.135
-38.749
-39.337
-39.899
-40.435
-40.945
-41.431
-41.893
-42.333
-42.751
-43.149
-43.53
-43.893
-44.242
-44.579
-44.905
-45.222
-45.534
-45.842
-46.148
-46.454
-46.763
-47.077
-47.396
-47.724
-48.06
-48.407
-48.765
-49.135
-49.516
-49.908
-50.31
-50.721
-51.138
-51.558
-51.98
-52.399
-52.812
-53.215
-53.604
-53.975
-54.324
-54.645
-54.933
-55.183
-55.389
-55.547
-55.65
-55.694
-55.671
-55.578
-55.409
-55.159
-54.825
-54.4
-53.882
-53.266
-52.55
-51.73
-50.806
-49.775
-48.636
-47.392
-46.042
-44.59
-43.039
-41.393
-39.656
-37.835
-35.934
-33.962
-31.926
-29.832
-27.69
-25.508
-23.297
-21.068
-18.832
-16.599
-14.381
-12.191
-10.042
-7.945
-5.913
-3.959
-2.094
-0.332
1.316
2.837
4.219
5.45
6.518
7.412
8.123
8.642
8.962
9.077
8.985
8.682
8.17
7.45
6.524
5.394
4.061
2.528
0.803
-1.108
-3.195
-5.447
-7.851
-10.391
-13.047
-15.802
-18.638
-21.546
-24.518
-27.544
-30.607
-33.689
-36.768
-39.821
-42.828
-45.759
-48.579
-51.258
-53.771
-56.109
-58.272
-60.25
-62.026
-63.58
-64.886
-65.935
-66.73
-67.274
-67.579
-67.664
-67.556
-67.31
-66.982
-66.636
-66.331
-66.11
-66.012
-66.091
-66.397
-67.011
-68.032
-69.437
-71.116
-72.891
-74.482
-75.693
-76.403
-76.359
-75.31
-73.266
-70.481
-67.537
-65.179
-63.768
-63.389
-64.229
-66.417
-69.778
-73.683
-76.877
-78.039
-76.429
-71.692
-63.426
-51.044
-34.183
-13.259
10.715
36.893
64.719
93.644
121.484
143.896
156.931
158.784
152.076
141.448
128.624
110.442
75.883
13.377
-83.074
-212.361
-360.335
-508.681
-640.057
-739.002
-799.307
-818.801
-798.359
-742.361
-657.017
-553.669
-446.572
-351.723
-281.491
-239.288
-220.46
-214.116
-208.757
-196.545
-176.402
-150.854
-123.177
-98.825
-79.505
-65.255
-56.925
-51.336
-46.35
-41.695
-36.168
-30.698
-26.305
-22.709
-20.014
-18.223
-17.35
-17.603
-18.976
-21.214
-23.974
-26.968
-29.944
-32.608
-34.62
-35.752
-35.917
-35.137
-33.535
-31.225
-28.293
-24.866
-21.098
-17.113
-13.027
-8.947
-4.951
-1.139
2.377
5.522
8.251
10.536
12.383
13.813
14.85
15.544
15.953
16.133
16.142
16.029
15.837
15.616
15.419
15.295
15.297
15.465
15.825
16.399
17.197
18.226
19.488
20.976
22.68
24.593
26.708
29.022
31.53
34.229
37.11
40.166
43.387
46.766
50.295
53.968
57.775
61.71
65.764
69.931
74.204
78.574
83.029
87.558
92.148
96.785
101.457
106.149
110.846
115.534
120.199
124.828
129.406
133.921
138.357
142.702
146.941
151.06
155.047
158.888
162.569
166.079
169.403
172.531
175.45
178.148
180.616
182.841
184.814
186.527
187.969
189.133
190.013
190.601
190.895
190.888
190.579
189.965
189.047
187.824
186.298
184.472
182.349
179.934
177.234
174.255
171.005
167.494
163.733
159.734
155.508
151.07
146.434
141.616
136.631
131.496
126.229
120.847
115.369
109.814
104.2
98.547
92.873
87.198
81.539
75.916
70.346
64.846
59.433
54.122
48.928
43.866
38.95
34.191
29.602
25.191
20.969
16.943
13.12
9.504
6.101
2.914
-0.058
-2.811
-5.347
-7.668
-9.775
-11.672
-13.363
-14.853
-16.148
-17.254
-18.18
-18.931
-19.516
-19.944
-20.222
-20.359
-20.364
-20.246
-20.012
-19.673
-19.235
-18.708
-18.1
-17.42
-16.674
-15.871
-15.016
-14.118
-13.181
-12.212
-11.215
-10.195
-9.157
-8.103
-7.039
-5.966
-4.887
-3.805
-2.722
-1.639
-0.557
0.522
1.597
2.668
3.732
4.79
5.84
6.881
7.91
8.928
9.932
10.92
11.89
12.842
13.772
14.679
15.56
16.413
17.236
18.026
18.781
19.497
20.173
20.805
21.391
21.927
22.412
22.843
23.216
23.53
23.783
23.971
24.094
24.148
24.133
24.047
23.89
23.66
23.358
22.985
22.542
22.029
21.45
20.807
20.102
19.34
18.523
17.657
16.744
15.791
14.802
13.783
12.738
11.673
10.595
9.508
8.419
7.333
6.255
5.191
4.146
3.125
2.133
1.175
0.256
-0.621
-1.452
-2.232
-2.959
-3.63
-4.242
-4.795
-5.287
-5.716
-6.085
-6.392
-6.639
-6.828
-6.96
-7.038
-7.065
-7.044
-6.978
-6.871
-6.728
-6.553
-6.349
-6.121
-5.874
-5.612
-5.337
-5.055
-4.768
-4.48
-4.193
-3.91
-3.635
-3.368
-3.112
-2.868
-2.638
-2.422
-2.221
-2.033
-1.859
-1.697
-1.546
-1.404
-1.269
-1.138
-1.009
-0.879
-0.744
-0.601
-0.445
-0.273
-0.081
0.137
0.383
0.662
0.977
1.331
1.727
2.166
2.651
3.182
3.76
4.385
5.056
5.774
6.537
7.342
8.187
9.069
9.983
10.925
11.89
12.872
13.866
14.866
15.865
16.857
17.835
18.791
19.719
20.611
21.457
22.248
22.975
23.629
24.202
24.685
25.07
25.351
25.523
25.582
25.525
25.351
25.057
24.642
24.105
23.445
22.662
21.757
20.733
19.594
18.345
16.99
15.54
14.002
12.385
10.694
8.928
7.092
5.194
3.246
1.262
-0.737
-2.733
-4.698
-6.598
-8.398
-10.068
-11.58
-12.92
-14.075
-15.033
-15.779
-16.287
-16.543
-16.556
-16.343
-15.928
-15.345
-14.631
-13.848
-13.096
-12.476
-12.087
-12.013
-12.313
-13.041
-14.246
-15.978
-18.288
-21.184
-24.622
-28.531
-32.83
-37.44
-42.284
-47.217
-52.016
-56.452
-60.297
-63.358
-65.47
-66.391
-65.836
-63.606
-59.593
-53.865
-46.688
-38.35
-29.176
-19.676
-10.438
-1.866
5.782
12.564
19.096
26.169
34.652
45.882
60.051
75.461
90.66
103.909
116.242
132.51
153.276
174.309
185.21
170.184
121.181
39.774
-66.504
-185.392
-307.035
-425.316
-530.928
-611.568
-658.784
-668.792
-647.187
-609.055
-565.388
-522.136
-480.484
-435.411
-385.573
-332.996
-280.116
-231.416
-189.215
-153.475
-124.17
-100.426
-81.115
-65.945
-54.536
-45.918
-39.345
-33.935
-28.558
-22.843
-16.844
-10.413
-3.589
3.327
10.133
16.317
21.127
24.334
25.994
26.216
25.314
23.584
21.258
18.749
16.556
14.981
14.173
14.162
14.844
16.146
18.024
20.383
23.108
26.088
29.227
32.451
35.711
38.95
42.095
45.069
47.789
50.184
52.211
53.862
55.146
56.081
56.697
57.024
57.102
56.983
56.713
56.334
55.883
55.392
54.898
54.441
54.066
53.814
53.714
53.785
54.039
54.483
55.123
55.96
56.992
58.209
59.607
61.181
62.93
64.853
66.947
69.205
71.62
74.183
76.888
79.728
82.695
85.78
88.975
92.273
95.664
99.141
102.695
106.316
109.991
113.708
117.454
121.218
124.984
128.74
132.47
136.162
139.801
143.373
146.865
150.26
153.545
156.705
159.727
162.596
165.298
167.82
170.15
172.274
174.182
175.862
177.304
178.498
179.435
180.109
180.51
180.635
180.476
180.031
179.295
178.267
176.945
175.329
173.419
171.217
168.727
165.952
162.898
159.572
155.98
152.133
148.04
143.713
139.164
134.406
129.454
124.323
119.028
113.586
108.014
102.33
96.55
90.694
84.778
78.821
72.841
66.855
60.882
54.939
49.042
43.208
37.453
31.792
26.241
20.813
15.522
10.381
5.402
0.596
-4.027
-8.459
-12.692
-16.719
-20.535
-24.135
-27.517
-30.678
-33.618
-36.335
-38.832
-41.108
-43.167
-45.012
-46.647
-48.075
-49.303
-50.335
-51.178
-51.837
-52.321
-52.635
-52.787
-52.785
-52.636
-52.349
-51.932
-51.393
-50.741
-49.985
-49.133
-48.194
-47.176
-46.088
-44.937
-43.731
-42.478
-41.185
-39.86
-38.508
-37.137
-35.754
-34.364
-32.973
-31.588
-30.214
-28.855
-27.519
-26.208
-24.928
-23.684
-22.48
-21.319
-20.206
-19.145
-18.138
-17.189
-16.3
-15.474
-14.713
-14.019
-13.392
-12.834
-12.345
-11.927
-11.579
-11.301
-11.094
-10.956
-10.886
-10.885
-10.949
-11.077
-11.267
-11.517
-11.824
-12.184
-12.596
-13.054
-13.558
-14.102
-14.683
-15.297
-15.942
-16.612
-17.305
-18.017
-18.743
-19.481
-20.228
-20.98
-21.735
-22.49
-23.242
-23.989
-24.728
-25.459
-26.178
-26.885
-27.578
-28.255
-28.917
-29.561
-30.189
-30.8
-31.395
-31.974
-32.537
-33.086
-33.622
-34.144
-34.655
-35.155
-35.645
-36.126
-36.598
-37.062
-37.517
-37.965
-38.404
-38.835
-39.255
-39.664
-40.061
-40.443
-40.808
-41.155
-41.482
-41.786
-42.064
-42.314
-42.533
-42.717
-42.864
-42.969
-43.03
-43.042
-43.001
-42.904
-42.747
-42.527
-42.24
-41.883
-41.452
-40.947
-40.364
-39.701
-38.958
-38.132
-37.225
-36.236
-35.168
-34.022
-32.801
-31.508
-30.148
-28.725
-27.244
-25.71
-24.13
-22.508
-20.853
-19.17
-17.468
-15.755
-14.039
-12.33
-10.636
-8.968
-7.334
-5.743
-4.205
-2.728
-1.321
0.006
1.246
2.389
3.426
4.349
5.15
5.82
6.352
6.743
6.989
7.089
7.04
6.844
6.502
6.016
5.391
4.63
3.737
2.717
1.578
0.331
-1.014
-2.444
-3.948
-5.516
-7.133
-8.789
-10.474
-12.181
-13.908
-15.646
-17.383
-19.111
-20.818
-22.493
-24.127
-25.704
-27.2
-28.597
-29.874
-31.015
-32.014
-32.856
-33.517
-33.985
-34.245
-34.304
-34.179
-33.874
-33.385
-32.706
-31.854
-30.884
-29.884
-28.936
-28.124
-27.509
-27.172
-27.27
-27.874
-28.942
-30.338
-31.765
-33
-34.031
-34.776
-35.055
-34.918
-34.512
-34.259
-35.049
-37.374
-41.163
-46.394
-52.928
-60.331
-68.235
-75.639
-80.733
-82.438
-80.431
-74.466
-64.713
-51.307
-33.865
-12.978
9.688
33.232
57.272
81.353
105.488
128.013
144.849
154.295
156.343
151.462
142.462
127.026
98.042
51.294
-16.379
-102.308
-196.388
-292.593
-387.845
-478.302
-562.493
-633.375
-678.706
-692.064
-671.263
-619.492
-547.334
-464.408
-378.853
-300.651
-237.658
-193.534
-168.961
-157.913
-149.222
-136.655
-117.324
-92.195
-68.699
-50.11
-36.691
-28.528
-21.475
-13.47
-4.708
5.504
15.869
25.115
32.972
38.608
41.825
43
42.304
40.044
36.625
32.38
27.754
23.323
19.51
16.529
14.488
13.38
13.152
13.783
15.219
17.34
20.035
23.194
26.712
30.514
34.513
38.589
42.623
46.489
50.065
53.28
56.089
58.47
60.427
61.975
63.139
63.96
64.491
64.78
64.877
64.825
64.664
64.441
64.208
64.016
63.919
63.952
64.139
64.496
65.032
65.752
66.656
67.74
68.993
70.407
71.98
73.708
75.593
77.631
79.816
82.144
84.608
87.203
89.924
92.767
95.727
98.799
101.977
105.258
108.636
112.106
115.658
119.285
122.975
126.717
130.501
134.316
138.149
141.988
145.82
149.634
153.418
157.159
160.845
164.463
167.999
171.44
174.774
177.986
181.063
183.992
186.759
189.351
191.755
193.958
195.949
197.717
199.252
200.543
201.583
202.363
202.876
203.117
203.081
202.764
202.162
201.275
200.1
198.639
196.893
194.863
192.555
189.97
187.116
183.998
180.623
176.999
173.136
169.044
164.733
160.217
155.508
150.621
145.57
140.37
135.038
129.59
124.044
118.415
112.721
106.98
101.207
95.42
89.635
83.869
78.136
72.452
66.832
61.29
55.839
50.491
45.259
40.153
35.185
30.364
25.699
21.198
16.869
12.718
8.752
4.976
1.393
-1.992
-5.179
-8.164
-10.948
-13.532
-15.915
-18.101
-20.091
-21.889
-23.498
-24.924
-26.17
-27.241
-28.143
-28.881
-29.461
-29.89
-30.173
-30.318
-30.329
-30.214
-29.979
-29.63
-29.176
-28.621
-27.973
-27.24
-26.427
-25.543
-24.595
-23.589
-22.534
-21.436
-20.303
-19.14
-17.956
-16.756
-15.546
-14.332
-13.121
-11.918
-10.728
-9.556
-8.407
-7.287
-6.199
-5.147
-4.137
-3.172
-2.255
-1.391
-0.582
0.167
0.855
1.477
2.031
2.516
2.929
3.27
3.537
3.729
3.848
3.894
3.867
3.769
3.602
3.367
3.068
2.705
2.283
1.805
1.273
0.691
0.062
-0.609
-1.32
-2.065
-2.843
-3.648
-4.476
-5.325
-6.189
-7.065
-7.948
-8.835
-9.721
-10.601
-11.473
-12.331
-13.173
-13.995
-14.794
-15.567
-16.311
-17.026
-17.708
-18.356
-18.97
-19.548
-20.091
-20.597
-21.068
-21.504
-21.905
-22.271
-22.605
-22.907
-23.177
-23.418
-23.63
-23.815
-23.973
-24.107
-24.217
-24.305
-24.372
-24.421
-24.454
-24.472
-24.478
-24.474
-24.463
-24.445
-24.425
-24.404
-24.384
-24.368
-24.357
-24.353
-24.359
-24.376
-24.404
-24.447
-24.503
-24.576
-24.665
-24.771
-24.896
-25.039
-25.201
-25.384
-25.588
-25.813
-26.06
-26.33
-26.624
-26.941
-27.282
-27.647
-28.035
-28.446
-28.879
-29.332
-29.803
-30.291
-30.792
-31.304
-31.824
-32.347
-32.871
-33.39
-33.902
-34.4
-34.882
-35.342
-35.776
-36.179
-36.546
-36.873
-37.155
-37.387
-37.564
-37.683
-37.738
-37.725
-37.64
-37.478
-37.235
-36.908
-36.493
-35.986
-35.384
-34.687
-33.891
-32.996
-32.004
-30.914
-29.729
-28.452
-27.086
-25.636
-24.106
-22.502
-20.831
-19.1
-17.316
-15.487
-13.624
-11.734
-9.828
-7.916
-6.006
-4.111
-2.239
-0.401
1.392
3.131
4.804
6.402
7.913
9.326
10.631
11.817
12.873
13.791
14.562
15.176
15.63
15.917
16.036
15.984
15.762
15.368
14.806
14.077
13.185
12.134
10.927
9.571
8.073
6.44
4.686
2.823
0.864
-1.178
-3.294
-5.478
-7.719
-10.006
-12.327
-14.67
-17.018
-19.353
-21.644
-23.855
-25.952
-27.908
-29.702
-31.326
-32.77
-34.025
-35.079
-35.915
-36.53
-36.933
-37.131
-37.132
-36.954
-36.626
-36.211
-35.815
-35.532
-35.44
-35.593
-36.005
-36.714
-37.774
-39.239
-41.171
-43.574
-46.382
-49.57
-53.158
-57.098
-61.272
-65.382
-68.908
-71.51
-73.08
-73.562
-72.941
-71.206
-68.352
-64.762
-61.32
-58.659
-57
-56.251
-55.956
-55.789
-55.62
-54.806
-51.932
-45.709
-35.237
-20.18
-1.228
20.822
45.63
72.25
98.315
121.261
137.543
142.609
135.145
115.043
82.906
44.074
1.016
-48.673
-107.18
-182.56
-279.809
-390.62
-503.089
-597.523
-654.023
-669.252
-646.251
-596.947
-538.442
-477.59
-420.006
-367.173
-316.843
-272.094
-232.61
-198.395
-170.512
-146.3
-126.609
-112.156
-101.666
-95.131
-90.215
-84.269
-76.738
-67.387
-56.577
-45.144
-33.56
-22.216
-11.968
-3.751
2.035
5.332
6.35
5.55
3.308
-0.068
-4.073
-8.144
-11.889
-15.031
-17.452
-19.178
-20.202
-20.521
-20.177
-19.235
-17.779
-15.892
-13.648
-11.109
-8.344
-5.441
-2.499
0.376
3.084
5.531
7.655
9.426
10.826
11.862
12.551
12.914
12.991
12.829
12.476
11.976
11.372
10.701
10.011
9.349
8.764
8.303
8
7.877
7.95
8.228
8.715
9.414
10.32
11.422
12.715
14.193
15.854
17.696
19.715
21.906
24.261
26.774
29.439
32.251
35.203
38.289
41.503
44.839
48.29
51.851
55.513
59.267
63.102
67.006
70.967
74.973
79.01
83.065
87.123
91.173
95.201
99.194
103.14
107.026
110.839
114.566
118.195
121.714
125.11
128.37
131.482
134.433
137.21
139.802
142.196
144.382
146.348
148.085
149.583
150.833
151.828
152.56
153.026
153.218
153.136
152.775
152.135
151.216
150.02
148.549
146.806
144.797
142.527
140.002
137.23
134.218
130.975
127.512
123.839
119.967
115.91
111.68
107.293
102.762
98.103
93.333
88.469
83.527
78.526
73.482
68.413
63.338
58.273
53.235
48.242
43.31
38.453
33.688
29.028
24.486
20.075
15.806
11.689
7.735
3.951
0.346
-3.074
-6.301
-9.33
-12.158
-14.779
-17.192
-19.394
-21.385
-23.164
-24.733
-26.092
-27.246
-28.196
-28.947
-29.504
-29.873
-30.059
-30.071
-29.915
-29.6
-29.134
-28.524
-27.781
-26.912
-25.927
-24.834
-23.643
-22.361
-20.998
-19.563
-18.065
-16.511
-14.912
-13.274
-11.607
-9.92
-8.22
-6.516
-4.814
-3.125
-1.453
0.192
1.805
3.378
4.906
6.383
7.804
9.164
10.459
11.686
12.842
13.924
14.93
15.858
16.707
17.476
18.165
18.773
19.3
19.746
20.114
20.403
20.616
20.755
20.821
20.818
20.749
20.618
20.427
20.181
19.885
19.544
19.163
18.748
18.303
17.836
17.35
16.853
16.348
15.842
15.339
14.844
14.362
13.896
13.45
13.029
12.636
12.274
11.946
11.655
11.402
11.19
11.02
10.894
10.811
10.772
10.778
10.828
10.922
11.059
11.237
11.453
11.705
11.991
12.306
12.646
13.008
13.386
13.777
14.175
14.576
14.977
15.371
15.755
16.125
16.477
16.805
17.107
17.379
17.617
17.819
17.98
18.1
18.176
18.205
18.187
18.12
18.002
17.832
17.611
17.337
17.012
16.635
16.208
15.734
15.214
14.651
14.049
13.411
12.741
12.043
11.322
10.581
9.826
9.061
8.29
7.519
6.751
5.992
5.246
4.517
3.81
3.128
2.475
1.854
1.268
0.721
0.215
-0.247
-0.662
-1.029
-1.345
-1.608
-1.818
-1.974
-2.074
-2.12
-2.113
-2.053
-1.942
-1.783
-1.579
-1.331
-1.044
-0.721
-0.365
0.018
0.426
0.852
1.294
1.745
2.201
2.657
3.11
3.554
3.985
4.4
4.793
5.162
5.503
5.811
6.083
6.316
6.507
6.652
6.75
6.797
6.794
6.738
6.629
6.467
6.254
5.989
5.675
5.314
4.908
4.461
3.977
3.46
2.914
2.346
1.761
1.164
0.561
-0.041
-0.637
-1.221
-1.787
-2.329
-2.841
-3.317
-3.751
-4.138
-4.471
-4.746
-4.957
-5.099
-5.168
-5.16
-5.073
-4.902
-4.645
-4.3
-3.867
-3.345
-2.734
-2.034
-1.248
-0.378
0.573
1.599
2.697
3.859
5.08
6.352
7.67
9.024
10.409
11.815
13.235
14.661
16.083
17.494
18.882
20.241
21.561
22.833
24.048
25.198
26.275
27.272
28.181
28.994
29.706
30.308
30.795
31.161
31.4
31.509
31.483
31.319
31.017
30.576
29.998
29.285
28.442
27.472
26.382
25.176
23.86
22.44
20.92
19.308
17.612
15.839
13.997
12.098
10.157
8.188
6.202
4.208
2.21
0.215
-1.768
-3.73
-5.661
-7.551
-9.386
-11.143
-12.79
-14.301
-15.653
-16.842
-17.873
-18.751
-19.474
-20.039
-20.437
-20.676
-20.774
-20.735
-20.563
-20.267
-19.876
-19.463
-19.126
-18.949
-18.99
-19.27
-19.791
-20.577
-21.667
-23.096
-24.882
-26.993
-29.396
-32.127
-35.183
-38.472
-41.788
-44.74
-46.919
-48.069
-48.03
-46.663
-44.024
-40.36
-36.122
-32.136
-29.284
-28.198
-29.195
-32.336
-37.286
-43.293
-49.271
-53.575
-54.324
-49.904
-39.256
-21.864
2.158
31.808
65.275
99.712
131.569
157.003
172.34
174.328
159.916
128.385
81.666
22.188
-46.768
-124.858
-215.238
-315.978
-420.346
-515.089
-580.958
-608.123
-596.739
-555.671
-502.386
-448.34
-397.971
-351.531
-304.63
-256.195
-208.868
-166.063
-131.537
-106.347
-89.134
-78.178
-71.652
-68.244
-66.943
-66.15
-64.344
-60.83
-55.534
-48.851
-41.381
-33.519
-25.646
-18.519
-12.934
-9.268
-7.544
-7.48
-8.622
-10.615
-13.144
-15.767
-18.022
-19.612
-20.394
-20.367
-19.627
-18.238
-16.25
-13.743
-10.824
-7.595
-4.15
-0.562
3.106
6.769
10.323
13.662
16.706
19.407
21.74
23.701
25.293
26.529
27.439
28.063
28.441
28.614
28.621
28.497
28.284
28.029
27.78
27.586
27.484
27.501
27.655
27.959
28.422
29.046
29.83
30.768
31.855
33.089
34.47
35.996
37.666
39.474
41.417
43.487
45.682
47.996
50.426
52.967
55.616
58.368
61.221
64.17
67.21
70.335
73.538
76.808
80.139
83.52
86.944
90.399
93.877
97.369
100.866
104.358
107.838
111.296
114.722
118.109
121.446
124.726
127.937
131.072
134.121
137.074
139.921
142.654
145.262
147.735
150.064
152.24
154.253
156.095
157.755
159.227
160.503
161.575
162.437
163.082
163.506
163.703
163.671
163.404
162.902
162.161
161.18
159.96
158.499
156.801
154.865
152.696
150.297
147.674
144.832
141.778
138.521
135.069
131.433
127.624
123.654
119.536
115.284
110.913
106.438
101.874
97.237
92.545
87.813
83.058
78.296
73.544
68.817
64.132
59.504
54.946
50.475
46.102
41.842
37.705
33.704
29.849
26.15
22.614
19.25
16.065
13.062
10.248
7.624
5.192
2.954
0.909
-0.945
-2.611
-4.093
-5.394
-6.521
-7.481
-8.281
-8.928
-9.431
-9.8
-10.044
-10.172
-10.195
-10.122
-9.963
-9.729
-9.428
-9.071
-8.668
-8.227
-7.757
-7.268
-6.766
-6.261
-5.76
-5.268
-4.794
-4.341
-3.916
-3.522
-3.164
-2.845
-2.567
-2.333
-2.145
-2.002
-1.906
-1.856
-1.852
-1.893
-1.977
-2.103
-2.269
-2.471
-2.71
-2.981
-3.282
-3.612
-3.967
-4.347
-4.747
-5.167
-5.603
-6.055
-6.519
-6.995
-7.48
-7.974
-8.474
-8.981
-9.492
-10.008
-10.528
-11.052
-11.578
-12.108
-12.64
-13.175
-13.713
-14.254
-14.799
-15.349
-15.903
-16.463
-17.028
-17.601
-18.181
-18.768
-19.363
-19.966
-20.576
-21.195
-21.82
-22.453
-23.093
-23.738
-24.39
-25.046
-25.706
-26.369
-27.034
-27.699
-28.364
-29.026
-29.685
-30.338
-30.985
-31.625
-32.255
-32.875
-33.483
-34.079
-34.66
-35.226
-35.776
-36.307
-36.82
-37.312
-37.784
-38.234
-38.662
-39.067
-39.449
-39.808
-40.144
-40.456
-40.744
-41.009
-41.249
-41.466
-41.659
-41.829
-41.975
-42.099
-42.201
-42.281
-42.34
-42.379
-42.398
-42.398
-42.379
-42.342
-42.288
-42.215
-42.126
-42.021
-41.899
-41.763
-41.612
-41.446
-41.267
-41.073
-40.867
-40.647
-40.413
-40.167
-39.907
-39.636
-39.352
-39.057
-38.752
-38.437
-38.112
-37.779
-37.438
-37.089
-36.734
-36.371
-36.003
-35.629
-35.249
-34.865
-34.477
-34.085
-33.691
-33.293
-32.893
-32.49
-32.086
-31.68
-31.272
-30.864
-30.454
-30.044
-29.635
-29.226
-28.818
-28.412
-28.008
-27.606
-27.205
-26.805
-26.406
-26.008
-25.609
-25.211
-24.812
-24.412
-24.012
-23.61
-23.209
-22.806
-22.403
-21.999
-21.595
-21.192
-20.79
-20.39
-19.993
-19.6
-19.213
-18.832
-18.459
-18.095
-17.741
-17.397
-17.065
-16.746
-16.439
-16.147
-15.87
-15.609
-15.364
-15.138
-14.931
-14.743
-14.575
-14.428
-14.301
-14.194
-14.107
-14.039
-13.99
-13.957
-13.94
-13.936
-13.943
-13.958
-13.978
-13.998
-14.016
-14.026
-14.025
-14.008
-13.969
-13.906
-13.812
-13.684
-13.516
-13.304
-13.045
-12.732
-12.363
-11.934
-11.439
-10.877
-10.245
-9.54
-8.759
-7.902
-6.966
-5.953
-4.861
-3.691
-2.444
-1.123
0.271
1.733
3.258
4.843
6.48
8.163
9.884
11.636
13.41
15.198
16.991
18.778
20.551
22.297
24.008
25.673
27.281
28.821
30.284
31.659
32.938
34.11
35.169
36.106
36.914
37.585
38.114
38.494
38.72
38.786
38.688
38.423
37.991
37.391
36.625
35.696
34.609
33.372
31.994
30.484
28.846
27.09
25.226
23.266
21.224
19.114
16.948
14.739
12.505
10.264
8.032
5.82
3.633
1.47
-0.662
-2.753
-4.786
-6.748
-8.627
-10.408
-12.07
-13.583
-14.92
-16.061
-17.001
-17.743
-18.28
-18.605
-18.705
-18.567
-18.193
-17.602
-16.823
-15.885
-14.83
-13.708
-12.577
-11.529
-10.666
-10.079
-9.852
-10.054
-10.71
-11.858
-13.567
-15.825
-18.559
-21.63
-24.727
-27.572
-30.055
-32.052
-33.464
-34.357
-34.744
-34.8
-35.112
-36.187
-38.23
-41.311
-45.149
-49.111
-52.788
-55.603
-56.505
-54.482
-48.633
-38.361
-23.758
-5.432
15.977
39.621
64.449
88.935
110.711
127.743
137.389
137.154
126.448
103.816
69.909
27.791
-22.352
-79.405
-144.584
-223.226
-314.453
-413.311
-509.34
-584.287
-626.089
-630.794
-602.231
-554.404
-499.77
-445.108
-392.974
-340.626
-286.095
-231.128
-179.416
-135.541
-102.189
-79.291
-65.227
-57.758
-55.334
-56.584
-59.664
-62.788
-64.303
-63.32
-59.982
-54.768
-48.085
-40.462
-32.565
-25.166
-19.157
-14.967
-12.515
-11.554
-11.706
-12.597
-13.904
-15.21
-16.056
-16.196
-15.558
-14.171
-12.17
-9.658
-6.701
-3.412
0.092
3.708
7.36
11.001
14.583
18.039
21.291
24.252
26.863
29.099
30.944
32.399
33.481
34.213
34.629
34.775
34.691
34.416
33.986
33.432
32.791
32.104
31.414
30.765
30.193
29.721
29.372
29.161
29.096
29.185
29.432
29.833
30.39
31.105
31.982
33.026
34.241
35.628
37.186
38.917
40.82
42.894
45.139
47.554
50.136
52.885
55.797
58.871
62.103
65.487
69.015
72.68
76.473
80.385
84.404
88.52
92.721
96.996
101.331
105.716
110.137
114.58
119.033
123.48
127.908
132.302
136.645
140.924
145.121
149.222
153.211
157.071
160.788
164.346
167.731
170.929
173.926
176.71
179.268
181.589
183.662
185.478
187.028
188.303
189.298
190.007
190.424
190.547
190.373
189.901
189.129
188.059
186.691
185.03
183.078
180.842
178.328
175.543
172.498
169.202
165.667
161.907
157.934
153.764
149.411
144.891
140.221
135.418
130.498
125.48
120.382
115.22
110.013
104.779
99.534
94.295
89.079
83.902
78.778
73.722
68.749
63.872
59.104
54.456
49.941
45.568
41.346
37.284
33.389
29.667
26.122
22.758
19.577
16.58
13.769
11.142
8.699
6.436
4.35
2.438
0.694
-0.887
-2.311
-3.584
-4.714
-5.707
-6.571
-7.312
-7.939
-8.458
-8.877
-9.204
-9.445
-9.608
-9.7
-9.728
-9.699
-9.62
-9.496
-9.334
-9.139
-8.914
-8.666
-8.398
-8.113
-7.814
-7.504
-7.186
-6.862
-6.532
-6.198
-5.862
-5.522
-5.179
-4.834
-4.486
-4.135
-3.78
-3.423
-3.062
-2.699
-2.332
-1.964
-1.594
-1.222
-0.85
-0.478
-0.108
0.26
0.624
0.983
1.335
1.677
2.008
2.326
2.628
2.911
3.174
3.414
3.628
3.814
3.97
4.092
4.178
4.226
4.234
4.198
4.118
3.991
3.817
3.595
3.324
3.004
2.636
2.221
1.759
1.253
0.703
0.113
-0.516
-1.18
-1.875
-2.599
-3.346
-4.114
-4.898
-5.693
-6.495
-7.299
-8.102
-8.898
-9.684
-10.456
-11.209
-11.94
-12.644
-13.319
-13.961
-14.568
-15.137
-15.666
-16.154
-16.601
-17.006
-17.368
-17.689
-17.969
-18.21
-18.414
-18.582
-18.718
-18.825
-18.906
-18.965
-19.006
-19.033
-19.052
-19.066
-19.08
-19.099
-19.127
-19.169
-19.227
-19.308
-19.413
-19.547
-19.713
-19.914
-20.151
-20.427
-20.742
-21.099
-21.497
-21.936
-22.415
-22.932
-23.488
-24.078
-24.7
-25.353
-26.032
-26.733
-27.454
-28.189
-28.934
-29.685
-30.436
-31.183
-31.921
-32.644
-33.348
-34.029
-34.681
-35.302
-35.886
-36.43
-36.931
-37.386
-37.792
-38.148
-38.451
-38.701
-38.896
-39.037
-39.125
-39.16
-39.145
-39.08
-38.968
-38.812
-38.614
-38.378
-38.108
-37.806
-37.477
-37.125
-36.754
-36.367
-35.968
-35.563
-35.154
-34.745
-34.34
-33.942
-33.555
-33.18
-32.821
-32.481
-32.161
-31.862
-31.588
-31.338
-31.113
-30.914
-30.741
-30.593
-30.471
-30.371
-30.294
-30.237
-30.199
-30.177
-30.17
-30.173
-30.186
-30.205
-30.227
-30.25
-30.272
-30.289
-30.299
-30.299
-30.289
-30.264
-30.224
-30.165
-30.087
-29.988
-29.867
-29.72
-29.548
-29.35
-29.123
-28.868
-28.582
-28.265
-27.916
-27.534
-27.118
-26.669
-26.184
-25.665
-25.11
-24.52
-23.895
-23.235
-22.539
-21.809
-21.043
-20.243
-19.407
-18.537
-17.631
-16.691
-15.716
-14.706
-13.664
-12.589
-11.481
-10.343
-9.175
-7.98
-6.758
-5.512
-4.243
-2.955
-1.651
-0.334
0.99
2.319
3.646
4.967
6.275
7.566
8.834
10.072
11.275
12.437
13.551
14.61
15.608
16.537
17.389
18.155
18.827
19.397
19.858
20.205
20.431
20.533
20.507
20.351
20.066
19.648
19.097
18.41
17.585
16.626
15.537
14.322
12.988
11.542
9.992
8.351
6.629
4.832
2.965
1.025
-0.986
-3.056
-5.171
-7.315
-9.473
-11.629
-13.763
-15.843
-17.845
-19.745
-21.53
-23.199
-24.741
-26.136
-27.361
-28.394
-29.22
-29.855
-30.316
-30.613
-30.772
-30.818
-30.786
-30.752
-30.788
-30.96
-31.337
-31.97
-32.908
-34.228
-36.012
-38.261
-40.885
-43.705
-46.471
-48.976
-51.065
-52.601
-53.428
-53.575
-53.314
-53.006
-53.12
-54.028
-55.846
-58.551
-62.121
-66.123
-69.718
-72.12
-72.484
-70.136
-64.819
-56.294
-44.156
-28.56
-10.132
10.601
32.982
56.481
80.686
104.448
125.768
142.807
153.693
156.238
148.245
126.965
90.966
41.596
-18.702
-87.009
-163.631
-252.495
-353.229
-460.671
-561.704
-636.734
-675.56
-676.278
-645.38
-597.055
-538.265
-472.821
-404.88
-337.972
-279.909
-236.291
-206.56
-185.175
-164.517
-140.64
-114.476
-90.328
-72.109
-60.696
-54.305
-50.137
-46.357
-42.147
-37.533
-32.924
-28.196
-23.202
-18.192
-13.352
-9.088
-6.026
-4.292
-3.787
-4.429
-5.917
-7.953
-10.308
-12.601
-14.397
-15.486
-15.775
-15.273
-14.109
-12.364
-10.098
-7.424
-4.468
-1.343
1.851
5.045
8.183
11.194
13.994
16.497
18.642
20.401
21.768
22.76
23.406
23.737
23.799
23.645
23.324
22.888
22.383
21.848
21.326
20.862
20.502
20.295
20.279
20.477
20.91
21.587
22.512
23.689
25.115
26.78
28.677
30.801
33.146
35.71
38.485
41.465
44.639
47.998
51.531
55.228
59.08
63.075
67.203
71.453
75.813
80.273
84.82
89.44
94.119
98.84
103.588
108.347
113.1
117.831
122.524
127.164
131.736
136.224
140.617
144.9
149.06
153.087
156.968
160.692
164.251
167.633
170.83
173.833
176.633
179.223
181.595
183.743
185.659
187.339
188.777
189.968
190.909
191.597
192.028
192.201
192.115
191.769
191.164
190.302
189.183
187.811
186.189
184.322
182.213
179.868
177.291
174.489
171.466
168.231
164.788
161.146
157.313
153.296
149.104
144.748
140.237
135.582
130.794
125.884
120.865
115.75
110.552
105.284
99.96
94.594
89.201
83.794
78.388
72.997
67.635
62.314
57.048
51.849
46.729
41.701
36.776
31.964
27.277
22.726
18.319
14.068
9.98
6.065
2.33
-1.217
-4.569
-7.721
-10.667
-13.403
-15.926
-18.234
-20.324
-22.197
-23.853
-25.293
-26.521
-27.54
-28.354
-28.969
-29.389
-29.622
-29.674
-29.551
-29.262
-28.814
-28.216
-27.475
-26.601
-25.603
-24.491
-23.273
-21.961
-20.563
-19.092
-17.556
-15.966
-14.334
-12.668
-10.981
-9.281
-7.579
-5.884
-4.205
-2.55
-0.927
0.656
2.195
3.683
5.115
6.487
7.796
9.039
10.213
11.316
12.347
13.305
14.188
14.998
15.733
16.396
16.987
17.508
17.96
18.347
18.671
18.935
19.143
19.299
19.407
19.471
19.497
19.489
19.451
19.39
19.31
19.214
19.109
18.996
18.882
18.767
18.657
18.552
18.457
18.372
18.3
18.243
18.201
18.176
18.169
18.18
18.209
18.257
18.323
18.407
18.508
18.625
18.757
18.903
19.061
19.229
19.406
19.589
19.776
19.964
20.152
20.336
20.515
20.687
20.849
21
21.138
21.263
21.372
21.465
21.542
21.601
21.642
21.665
21.671
21.658
21.628
21.581
21.518
21.439
21.345
21.239
21.12
20.991
20.852
20.707
20.556
20.401
20.244
20.087
19.932
19.781
19.634
19.495
19.364
19.242
19.13
19.03
18.941
18.864
18.8
18.748
18.707
18.679
18.661
18.654
18.656
18.667
18.686
18.711
18.741
18.774
18.81
18.845
18.878
18.908
18.931
18.945
18.949
18.941
18.917
18.877
18.818
18.739
18.637
18.512
18.362
18.186
17.983
17.752
17.493
17.207
16.892
16.55
16.181
15.786
15.367
14.924
14.458
13.972
13.465
12.94
12.398
11.842
11.272
10.691
10.102
9.507
8.91
8.311
7.714
7.121
6.535
5.958
5.391
4.838
4.299
3.779
3.278
2.799
2.345
1.918
1.519
1.151
0.813
0.508
0.236
-0.002
-0.206
-0.375
-0.507
-0.603
-0.66
-0.679
-0.657
-0.594
-0.489
-0.341
-0.151
0.081
0.355
0.671
1.029
1.429
1.87
2.353
2.88
3.453
4.071
4.734
5.442
6.191
6.981
7.808
8.67
9.562
10.479
11.418
12.38
13.365
14.377
15.412
16.46
17.51
18.557
19.588
20.595
21.562
22.471
23.311
24.082
24.784
25.422
25.993
26.481
26.873
27.149
27.298
27.325
27.234
27.018
26.687
26.252
25.735
25.181
24.613
24.024
23.405
22.731
21.983
21.162
20.265
19.286
18.219
17.032
15.698
14.215
12.564
10.715
8.622
6.201
3.387
0.171
-3.437
-7.401
-11.667
-16.201
-20.952
-25.849
-30.816
-35.754
-40.574
-45.225
-49.656
-53.806
-57.591
-60.882
-63.555
-65.557
-66.874
-67.53
-67.59
-67.115
-66.187
-64.924
-63.442
-61.87
-60.327
-58.904
-57.664
-56.649
-55.906
-55.483
-55.468
-55.958
-56.921
-58.188
-59.444
-60.315
-60.573
-60.188
-59.092
-57.007
-53.793
-49.569
-44.907
-40.791
-37.791
-35.803
-34.587
-34.182
-34.56
-35.492
-35.958
-33.922
-27.911
-17.621
-2.946
16.187
39.195
65.373
91.988
113.328
125.758
127.468
117.712
99.86
74.201
36.172
-17.896
-94.745
-197.926
-320.509
-451.248
-573.341
-667.799
-723.77
-738.413
-714.93
-663.463
-596.578
-524.906
-459.444
-407.164
-367.913
-338.076
-309.793
-276.701
-238.25
-197.113
-159.059
-128.296
-105.199
-88.873
-77.243
-68.48
-62.058
-57.346
-53.387
-49.652
-45.782
-41.385
-36.408
-31.035
-25.407
-20.036
-15.705
-12.705
-11.043
-10.636
-11.166
-12.342
-13.941
-15.547
-16.677
-17.078
-16.643
-15.39
-13.463
-10.955
-7.932
-4.513
-0.838
2.966
6.793
10.562
14.213
17.668
20.834
23.619
25.958
27.822
29.207
30.134
30.636
30.745
30.511
29.989
29.233
28.297
27.23
26.074
24.88
23.696
22.575
21.57
20.723
20.064
19.613
19.386
19.389
19.63
20.108
20.818
21.759
22.928
24.326
25.954
27.81
29.889
32.186
34.694
37.404
40.311
43.406
46.68
50.124
53.728
57.482
61.376
65.397
69.531
73.762
78.074
82.45
86.874
91.327
95.791
100.25
104.686
109.081
113.42
117.686
121.862
125.933
129.884
133.699
137.365
140.867
144.192
147.327
150.259
152.978
155.472
157.732
159.749
161.515
163.022
164.265
165.238
165.937
166.36
166.505
166.37
165.956
165.265
164.297
163.058
161.549
159.778
157.749
155.469
152.945
150.186
147.199
143.994
140.581
136.971
133.174
129.202
125.068
120.783
116.361
111.817
107.162
102.412
97.582
92.685
87.736
82.751
77.743
72.728
67.719
62.73
57.776
52.869
48.022
43.249
38.56
33.967
29.481
25.112
20.87
16.763
12.8
8.988
5.334
1.844
-1.475
-4.62
-7.586
-10.368
-12.965
-15.375
-17.595
-19.625
-21.466
-23.118
-24.583
-25.863
-26.961
-27.88
-28.625
-29.2
-29.61
-29.861
-29.959
-29.91
-29.722
-29.401
-28.954
-28.389
-27.715
-26.938
-26.066
-25.108
-24.072
-22.964
-21.794
-20.57
-19.299
-17.989
-16.648
-15.285
-13.907
-12.521
-11.134
-9.754
-8.387
-7.039
-5.715
-4.423
-3.166
-1.949
-0.777
0.346
1.416
2.431
3.388
4.284
5.118
5.888
6.592
7.231
7.802
8.306
8.742
9.111
9.413
9.648
9.817
9.922
9.964
9.945
9.867
9.732
9.543
9.302
9.013
8.677
8.298
7.879
7.422
6.93
6.406
5.853
5.274
4.672
4.05
3.41
2.754
2.086
1.408
0.721
0.029
-0.666
-1.363
-2.058
-2.749
-3.434
-4.111
-4.778
-5.433
-6.074
-6.7
-7.309
-7.902
-8.475
-9.03
-9.565
-10.079
-10.572
-11.043
-11.493
-11.919
-12.323
-12.703
-13.06
-13.394
-13.704
-13.991
-14.254
-14.493
-14.708
-14.9
-15.067
-15.212
-15.333
-15.432
-15.509
-15.565
-15.602
-15.619
-15.618
-15.6
-15.565
-15.514
-15.448
-15.367
-15.272
-15.164
-15.042
-14.908
-14.763
-14.607
-14.44
-14.265
-14.081
-13.89
-13.693
-13.49
-13.284
-13.074
-12.863
-12.652
-12.441
-12.233
-12.029
-11.83
-11.637
-11.451
-11.273
-11.103
-10.942
-10.789
-10.647
-10.514
-10.391
-10.278
-10.177
-10.086
-10.007
-9.938
-9.881
-9.835
-9.798
-9.771
-9.753
-9.741
-9.735
-9.734
-9.735
-9.736
-9.736
-9.731
-9.72
-9.698
-9.663
-9.612
-9.54
-9.446
-9.325
-9.174
-8.991
-8.773
-8.517
-8.221
-7.883
-7.501
-7.073
-6.596
-6.069
-5.491
-4.86
-4.176
-3.438
-2.646
-1.8
-0.902
0.046
1.043
2.087
3.175
4.303
5.468
6.666
7.89
9.137
10.398
11.667
12.937
14.2
15.448
16.672
17.865
19.018
20.123
21.173
22.159
23.073
23.908
24.655
25.308
25.857
26.296
26.615
26.808
26.87
26.794
26.576
26.214
25.706
25.051
24.252
23.308
22.223
20.997
19.634
18.138
16.515
14.773
12.924
10.979
8.95
6.851
4.696
2.498
0.269
-1.987
-4.266
-6.567
-8.881
-11.194
-13.488
-15.743
-17.938
-20.056
-22.077
-23.986
-25.768
-27.412
-28.917
-30.286
-31.521
-32.609
-33.527
-34.252
-34.784
-35.152
-35.391
-35.548
-35.668
-35.779
-35.932
-36.189
-36.612
-37.263
-38.183
-39.361
-40.797
-42.545
-44.616
-46.975
-49.483
-51.832
-53.716
-54.889
-55.177
-54.471
-52.822
-50.398
-47.539
-44.881
-43.148
-43.035
-44.98
-49.01
-54.682
-61.238
-67.773
-73.054
-75.528
-73.507
-65.651
-51.318
-30.806
-5.058
24.713
56.642
87.908
115.057
134.569
143.257
138.874
119.696
84.092
32.491
-32.117
-106.087
-185.139
-267.879
-356.412
-448.992
-540.629
-620.871
-674.981
-695.973
-682.655
-641.647
-585.571
-522.131
-458.871
-398.826
-341.428
-289.438
-241.383
-197.298
-158.853
-124.344
-95.675
-74.071
-58.577
-49.766
-45.848
-44.19
-43.482
-42.166
-39.552
-35.934
-31.374
-25.893
-19.869
-13.824
-8.414
-4.457
-2.31
-1.831
-2.779
-4.804
-7.516
-10.575
-13.541
-15.916
-17.429
-18.001
-17.661
-16.541
-14.746
-12.341
-9.44
-6.179
-2.677
0.964
4.662
8.351
11.945
15.342
18.441
21.169
23.49
25.391
26.88
27.983
28.725
29.146
29.295
29.219
28.963
28.571
28.082
27.538
26.986
26.476
26.057
25.768
25.634
25.673
25.895
26.304
26.902
27.687
28.648
29.78
31.079
32.542
34.168
35.954
37.893
39.981
42.209
44.571
47.062
49.677
52.409
55.253
58.205
61.258
64.41
67.653
70.981
74.384
77.853
81.378
84.951
88.559
92.193
95.842
99.495
103.141
106.772
110.376
113.944
117.466
120.931
124.33
127.654
130.893
134.038
137.08
140.009
142.816
145.493
148.031
150.422
152.657
154.729
156.629
158.35
159.885
161.226
162.368
163.304
164.028
164.534
164.818
164.876
164.703
164.296
163.654
162.774
161.656
160.297
158.7
156.864
154.791
152.483
149.943
147.176
144.187
140.98
137.563
133.943
130.129
126.129
121.954
117.613
113.12
108.485
103.721
98.843
93.864
88.799
83.663
78.472
73.242
67.989
62.73
57.481
52.259
47.08
41.96
36.916
31.962
27.114
22.386
17.792
13.347
9.061
4.947
1.016
-2.723
-6.262
-9.592
-12.707
-15.602
-18.272
-20.714
-22.926
-24.907
-26.658
-28.179
-29.472
-30.543
-31.394
-32.032
-32.465
-32.698
-32.742
-32.605
-32.298
-31.832
-31.218
-30.468
-29.594
-28.609
-27.527
-26.359
-25.12
-23.821
-22.476
-21.097
-19.696
-18.283
-16.87
-15.467
-14.084
-12.73
-11.412
-10.14
-8.919
-7.756
-6.658
-5.629
-4.673
-3.793
-2.993
-2.274
-1.637
-1.083
-0.612
-0.222
0.088
0.32
0.477
0.562
0.58
0.534
0.429
0.27
0.062
-0.191
-0.483
-0.809
-1.165
-1.546
-1.949
-2.369
-2.803
-3.246
-3.697
-4.152
-4.608
-5.062
-5.512
-5.957
-6.392
-6.818
-7.233
-7.634
-8.021
-8.393
-8.748
-9.087
-9.409
-9.713
-10
-10.27
-10.523
-10.76
-10.982
-11.19
-11.385
-11.567
-11.738
-11.898
-12.048
-12.187
-12.316
-12.435
-12.543
-12.641
-12.728
-12.804
-12.868
-12.921
-12.961
-12.989
-13.006
-13.01
-13.002
-12.984
-12.954
-12.915
-12.867
-12.81
-12.747
-12.678
-12.604
-12.527
-12.447
-12.365
-12.283
-12.2
-12.117
-12.036
-11.958
-11.882
-11.809
-11.742
-11.68
-11.625
-11.577
-11.538
-11.509
-11.489
-11.481
-11.483
-11.496
-11.521
-11.557
-11.604
-11.66
-11.725
-11.798
-11.878
-11.961
-12.047
-12.133
-12.217
-12.298
-12.373
-12.44
-12.497
-12.543
-12.577
-12.597
-12.603
-12.592
-12.565
-12.522
-12.461
-12.382
-12.286
-12.172
-12.042
-11.895
-11.732
-11.555
-11.364
-11.161
-10.948
-10.725
-10.495
-10.26
-10.021
-9.782
-9.543
-9.309
-9.08
-8.86
-8.65
-8.452
-8.268
-8.1
-7.947
-7.81
-7.69
-7.586
-7.498
-7.423
-7.361
-7.31
-7.266
-7.227
-7.189
-7.149
-7.103
-7.046
-6.973
-6.88
-6.761
-6.612
-6.427
-6.201
-5.929
-5.605
-5.226
-4.785
-4.279
-3.703
-3.052
-2.325
-1.516
-0.625
0.351
1.412
2.559
3.791
5.106
6.503
7.979
9.53
11.152
12.838
14.582
16.378
18.217
20.091
21.989
23.901
25.817
27.725
29.614
31.472
33.287
35.046
36.738
38.351
39.873
41.29
42.592
43.765
44.8
45.685
46.411
46.968
47.35
47.549
47.563
47.387
47.02
46.459
45.706
44.76
43.628
42.315
40.826
39.172
37.365
35.418
33.344
31.157
28.869
26.491
24.04
21.525
18.963
16.365
13.739
11.1
8.466
5.852
3.279
0.758
-1.7
-4.08
-6.356
-8.506
-10.501
-12.325
-13.973
-15.43
-16.676
-17.695
-18.473
-19.014
-19.344
-19.48
-19.423
-19.185
-18.791
-18.301
-17.817
-17.435
-17.205
-17.173
-17.393
-17.857
-18.523
-19.293
-19.929
-20.205
-20.072
-19.486
-18.414
-17.083
-15.737
-14.63
-14.275
-15.018
-16.749
-19.383
-22.789
-26.339
-29.465
-31.634
-31.968
-29.939
-25.558
-18.609
-8.822
3.529
18.147
34.759
52.893
72.241
92.529
111.803
126.383
133.128
130.369
119.671
105.37
90.35
72.188
42.102
-11.422
-98.07
-217.33
-354.704
-489.112
-596.53
-659.968
-678.36
-658.058
-610.524
-548.593
-477.823
-403.399
-333.207
-272.652
-226.881
-197.109
-176.631
-159.084
-140.958
-121.768
-105.597
-95.14
-89.711
-86.725
-82.624
-75.677
-65.96
-54.175
-41.422
-28.483
-16.108
-5.474
2.677
8.159
11.028
11.711
10.674
8.259
4.988
1.52
-1.673
-4.275
-6.124
-7.246
-7.653
-7.323
-6.305
-4.669
-2.486
0.149
3.164
6.502
10.081
13.816
17.601
21.317
24.855
28.111
31.013
33.526
35.626
37.309
38.587
39.476
40.014
40.249
40.229
40.001
39.612
39.103
38.524
37.933
37.382
36.925
36.601
36.435
36.45
36.66
37.075
37.7
38.535
39.573
40.809
42.243
43.871
45.696
47.712
49.914
52.296
54.85
57.57
60.451
63.485
66.665
69.983
73.433
77.007
80.698
84.496
88.389
92.367
96.414
100.518
104.664
108.838
113.024
117.207
121.372
125.505
129.591
133.617
137.567
141.43
145.19
148.835
152.353
155.73
158.954
162.013
164.897
167.592
170.09
172.38
174.451
176.296
177.906
179.273
180.392
181.255
181.857
182.196
182.267
182.068
181.598
180.857
179.847
178.568
177.024
175.219
173.157
170.845
168.287
165.491
162.465
159.218
155.758
152.094
148.239
144.202
139.996
135.633
131.127
126.491
121.738
116.885
111.945
106.934
101.867
96.76
91.628
86.487
81.353
76.239
71.16
66.132
61.167
56.278
51.478
46.778
42.189
37.72
33.382
29.181
25.127
21.225
17.482
13.903
10.493
7.255
4.193
1.307
-1.399
-3.926
-6.274
-8.443
-10.435
-12.252
-13.899
-15.377
-16.692
-17.849
-18.852
-19.709
-20.425
-21.006
-21.46
-21.793
-22.013
-22.126
-22.139
-22.06
-21.894
-21.649
-21.331
-20.946
-20.5
-19.998
-19.448
-18.853
-18.219
-17.551
-16.855
-16.135
-15.396
-14.642
-13.878
-13.108
-12.336
-11.566
-10.8
-10.042
-9.296
-8.563
-7.847
-7.148
-6.47
-5.814
-5.181
-4.574
-3.992
-3.438
-2.912
-2.417
-1.952
-1.519
-1.119
-0.754
-0.424
-0.131
0.124
0.34
0.517
0.653
0.748
0.801
0.813
0.783
0.712
0.599
0.445
0.251
0.018
-0.254
-0.564
-0.911
-1.294
-1.711
-2.162
-2.647
-3.162
-3.709
-4.286
-4.891
-5.524
-6.183
-6.867
-7.574
-8.303
-9.052
-9.818
-10.601
-11.398
-12.208
-13.027
-13.855
-14.689
-15.528
-16.369
-17.212
-18.055
-18.895
-19.733
-20.565
-21.392
-22.211
-23.022
-23.823
-24.613
-25.39
-26.154
-26.902
-27.632
-28.344
-29.034
-29.702
-30.345
-30.961
-31.55
-32.109
-32.637
-33.133
-33.595
-34.023
-34.415
-34.771
-35.089
-35.369
-35.611
-35.814
-35.978
-36.103
-36.189
-36.235
-36.243
-36.212
-36.143
-36.038
-35.896
-35.719
-35.509
-35.269
-34.999
-34.703
-34.384
-34.045
-33.69
-33.323
-32.946
-32.564
-32.181
-31.801
-31.427
-31.063
-30.714
-30.383
-30.073
-29.787
-29.53
-29.302
-29.107
-28.948
-28.825
-28.741
-28.696
-28.693
-28.731
-28.811
-28.934
-29.098
-29.302
-29.546
-29.827
-30.141
-30.487
-30.86
-31.257
-31.672
-32.101
-32.539
-32.979
-33.417
-33.846
-34.26
-34.652
-35.017
-35.347
-35.638
-35.883
-36.076
-36.213
-36.288
-36.297
-36.236
-36.101
-35.888
-35.594
-35.216
-34.752
-34.199
-33.557
-32.824
-32.002
-31.091
-30.094
-29.011
-27.846
-26.603
-25.285
-23.898
-22.446
-20.936
-19.373
-17.765
-16.119
-14.444
-12.749
-11.042
-9.331
-7.626
-5.936
-4.27
-2.637
-1.045
0.497
1.979
3.393
4.729
5.978
7.132
8.181
9.117
9.932
10.619
11.172
11.586
11.857
11.982
11.958
11.787
11.467
10.998
10.379
9.613
8.702
7.647
6.453
5.126
3.672
2.101
0.428
-1.335
-3.179
-5.096
-7.08
-9.124
-11.215
-13.342
-15.492
-17.649
-19.795
-21.899
-23.925
-25.842
-27.63
-29.279
-30.793
-32.165
-33.382
-34.434
-35.308
-36.003
-36.531
-36.89
-37.075
-37.1
-36.997
-36.841
-36.725
-36.722
-36.878
-37.204
-37.7
-38.399
-39.352
-40.601
-42.178
-44.04
-46.144
-48.518
-51.129
-53.879
-56.576
-58.813
-60.178
-60.502
-59.677
-57.67
-54.679
-50.792
-46.205
-41.608
-37.689
-34.847
-33.345
-32.973
-33.089
-33.445
-33.731
-32.982
-30.067
-23.919
-13.728
0.576
18.482
39.873
64.691
90.896
114.619
132.275
140.374
139.581
134.7
126.749
114.892
92.661
47.398
-27.627
-135.805
-272.268
-419.328
-558.326
-667.766
-730.521
-745.077
-717.657
-663.203
-600.101
-537.286
-478.118
-421.343
-362.456
-301.866
-243.331
-191.09
-149.56
-119.988
-100.861
-90.104
-85.381
-84.66
-86.147
-87.909
-88.143
-85.893
-81.103
-74.182
-65.801
-56.681
-47.551
-39.307
-32.904
-28.798
-26.938
-27.061
-28.706
-31.395
-34.727
-38.185
-41.187
-43.398
-44.683
-45.018
-44.514
-43.263
-41.311
-38.771
-35.785
-32.469
-28.936
-25.261
-21.49
-17.713
-14.033
-10.553
-7.382
-4.584
-2.184
-0.206
1.351
2.503
3.274
3.701
3.84
3.735
3.434
2.981
2.413
1.779
1.126
0.504
-0.037
-0.46
-0.745
-0.872
-0.831
-0.617
-0.224
0.347
1.092
2.007
3.095
4.357
5.798
7.42
9.221
11.195
13.34
15.653
18.135
20.792
23.625
26.629
29.8
33.131
36.616
40.242
43.989
47.824
51.717
55.645
59.597
63.571
67.56
71.558
75.56
79.558
83.559
87.575
91.609
95.662
99.735
103.841
108.01
112.291
116.722
121.319
126.075
130.964
135.961
141.034
146.141
151.222
156.198
160.993
165.551
169.826
173.772
177.331
180.419
182.936
184.799
185.958
186.386
186.076
185.025
183.248
180.781
177.692
174.073
170.004
165.539
160.722
155.594
150.211
144.65
138.996
133.317
127.662
122.072
116.573
111.198
105.96
100.85
95.836
90.87
85.921
80.979
76.045
71.122
66.208
61.294
56.37
51.441
46.515
41.598
36.699
31.82
26.975
22.188
17.495
12.934
8.534
4.311
0.279
-3.555
-7.183
-10.601
-13.81
-16.817
-19.629
-22.249
-24.682
-26.928
-28.992
-30.881
-32.605
-34.174
-35.596
-36.882
-38.041
-39.08
-40.008
-40.829
-41.546
-42.159
-42.669
-43.074
-43.373
-43.565
-43.655
-43.654
-43.571
-43.411
-43.178
-42.872
-42.487
-42.018
-41.454
-40.776
-39.963
-38.999
-37.876
-36.593
-35.157
-33.566
-31.809
-29.869
-27.735
-25.408
-22.897
-20.218
-17.4
-14.478
-11.516
-8.595
-5.788
-3.167
-0.806
1.245
2.937
4.203
5.002
5.263
4.886
3.898
2.401
0.564
-1.284
-2.835
-3.882
-4.057
-2.943
-0.492
3.193
7.737
12.25
16.103
18.972
20.234
19.355
16.431
11.747
6.171
1.58
-0.534
0.969
7.658
20.946
41.64
70.448
107.494
150.087
193.976
235.442
269.866
296.885
321.48
343.863
361.512
365.813
338.264
268.962
156.15
5.527
-162.924
-332.084
-487.626
-615.115
-707.623
-758.667
-764.535
-727.755
-656.45
-564.715
-468.77
-384.594
-319.574
-272.205
-235.971
-199.931
-159.167
-115.367
-72.853
-38.709
-15.68
-2.275
3.842
6.598
8.448
10.22
12.955
16.903
21.859
27.817
34.437
41.053
47.172
52.192
55.377
56.552
55.895
53.677
50.398
46.554
42.538
38.84
35.956
34.129
33.446
33.881
35.291
37.564
40.606
44.265
48.372
52.769
57.322
61.923
66.473
70.863
74.973
78.69
81.939
84.687
86.92
88.65
89.904
90.714
91.133
91.226
91.056
90.688
90.186
89.605
89.004
88.448
87.995
87.702
87.614
87.757
88.152
88.817
89.759
90.987
92.503
94.304
96.39
98.763
101.424
104.374
107.612
111.127
114.912
118.961
123.267
127.829
132.64
137.685
142.951
148.421
154.073
159.882
165.812
171.813
177.847
183.879
189.882
195.84
201.731
207.534
213.23
218.802
224.234
229.517
234.635
239.565
244.301
248.843
253.209
257.44
261.552
265.542
269.396
273.082
276.565
279.807
282.757
285.344
287.511
289.205
290.388
291.042
291.129
290.602
289.402
287.448
284.691
281.113
276.703
271.473
265.452
258.681
251.232
243.209
234.697
225.77
216.495
206.916
197.095
187.111
177.041
166.98
157.004
147.171
137.537
128.147
119.027
110.192
101.637
93.331
85.261
77.423
69.813
62.44
55.303
48.398
41.721
35.265
29.017
22.976
17.146
11.541
6.185
1.099
-3.696
-8.178
-12.333
-16.15
-19.608
-22.691
-25.395
-27.714
-29.645
-31.176
-32.285
-32.972
-33.264
-33.209
-32.863
-32.265
-31.442
-30.414
-29.205
-27.848
-26.383
-24.846
-23.26
-21.652
-20.058
-18.533
-17.142
-15.918
-14.856
-13.92
-13.075
-12.306
-11.611
-10.991
-10.439
-9.94
-9.481
-9.061
-8.686
-8.351
-8.037
-7.704
-7.308
-6.831
-6.282
-5.695
-5.098
-4.504
-3.92
-3.35
-2.811
-2.313
-1.86
-1.441
-1.042
-0.66
-0.301
0.018
0.279
0.478
0.622
0.727
0.805
0.864
0.91
0.951
0.997
1.057
1.131
1.21
1.287
1.36
1.429
1.496
1.564
1.632
1.697
1.756
1.805
1.843
1.865
1.866
1.839
1.78
1.685
1.555
1.386
1.178
0.927
0.629
0.284
-0.112
-0.56
-1.064
-1.626
-2.249
-2.932
-3.677
-4.484
-5.352
-6.28
-7.269
-8.316
-9.421
-10.583
-11.8
-13.072
-14.397
-15.772
-17.197
-18.669
-20.184
-21.741
-23.336
-24.965
-26.625
-28.311
-30.02
-31.746
-33.485
-35.232
-36.982
-38.73
-40.471
-42.199
-43.909
-45.597
-47.257
-48.886
-50.48
-52.037
-53.553
-55.025
-56.452
-57.831
-59.161
-60.439
-61.663
-62.833
-63.945
-65
-65.997
-66.933
-67.81
-68.626
-69.382
-70.078
-70.716
-71.295
-71.818
-72.286
-72.702
-73.067
-73.386
-73.662
-73.897
-74.097
-74.264
-74.402
-74.515
-74.606
-74.677
-74.731
-74.771
-74.799
-74.817
-74.827
-74.831
-74.832
-74.83
-74.829
-74.83
-74.834
-74.845
-74.862
-74.888
-74.924
-74.971
-75.031
-75.104
-75.191
-75.293
-75.409
-75.538
-75.681
-75.835
-75.999
-76.17
-76.347
-76.526
-76.705
-76.882
-77.055
-77.22
-77.375
-77.519
-77.649
-77.763
-77.859
-77.934
-77.987
-78.014
-78.013
-77.982
-77.918
-77.819
-77.681
-77.503
-77.28
-77.011
-76.693
-76.322
-75.898
-75.419
-74.882
-74.288
-73.636
-72.925
-72.158
-71.335
-70.459
-69.531
-68.553
-67.529
-66.461
-65.352
-64.207
-63.028
-61.82
-60.587
-59.332
-58.062
-56.78
-55.492
-54.204
-52.922
-51.652
-50.401
-49.177
-47.987
-46.841
-45.747
-44.712
-43.745
-42.853
-42.044
-41.325
-40.7
-40.174
-39.75
-39.431
-39.219
-39.118
-39.129
-39.252
-39.49
-39.842
-40.307
-40.887
-41.576
-42.367
-43.254
-44.228
-45.283
-46.416
-47.622
-48.891
-50.211
-51.571
-52.955
-54.347
-55.725
-57.06
-58.318
-59.472
-60.5
-61.391
-62.145
-62.76
-63.232
-63.549
-63.703
-63.697
-63.544
-63.259
-62.855
-62.346
-61.764
-61.169
-60.644
-60.259
-60.069
-60.097
-60.334
-60.767
-61.418
-62.314
-63.486
-64.954
-66.669
-68.586
-70.72
-73.004
-75.307
-77.426
-78.957
-79.532
-79.023
-77.322
-74.398
-70.514
-65.842
-60.586
-55.392
-50.786
-46.997
-44.349
-42.766
-41.588
-40.508
-39.296
-37.188
-33.607
-28.007
-19.407
-7.52
7.009
24.09
43.793
65.24
87.567
108.536
123.672
130.569
128.552
117.233
99.249
74.57
38.989
-10.81
-81.218
-176.019
-290.195
-414.959
-534.425
-629.69
-689.637
-709.503
-692.256
-648.871
-589.034
-521.814
-456.152
-395.796
-344.063
-300.966
-261.875
-224.898
-188.132
-151.969
-120.62
-95.678
-77.632
-66.173
-58.549
-52.749
-47.745
-42.436
-36.698
-30.874
-25.018
-19.25
-13.867
-9.167
-5.565
-3.644
-3.589
-5.197
-8.2
-12.176
-16.696
-21.421
-25.919
-29.72
-32.556
-34.314
-34.977
-34.655
-33.438
-31.397
-28.66
-25.373
-21.675
-17.692
-13.522
-9.269
-5.049
-0.985
2.801
6.22
9.231
11.802
13.928
15.624
16.916
17.841
18.458
18.812
18.955
18.934
18.791
18.578
18.347
18.147
18.031
18.034
18.181
18.488
18.967
19.617
20.44
21.429
22.573
23.867
25.305
26.884
28.601
30.454
32.436
34.541
36.765
39.102
41.549
44.102
46.758
49.515
52.37
55.321
58.364
61.497
64.712
68.003
71.362
74.779
78.247
81.756
85.297
88.859
92.434
96.013
99.585
103.142
106.674
110.17
113.622
117.018
120.35
123.607
126.78
129.858
132.832
135.693
138.43
141.035
143.497
145.808
147.958
149.94
151.744
153.363
154.79
156.019
157.043
157.859
158.461
158.847
159.015
158.961
158.686
158.19
157.472
156.534
155.378
154.007
152.424
150.634
148.64
146.45
144.068
141.501
138.757
135.843
132.769
129.543
126.174
122.673
119.05
115.318
111.486
107.568
103.575
99.52
95.416
91.273
87.106
82.925
78.742
74.57
70.419
66.301
62.226
58.205
54.247
50.361
46.557
42.843
39.227
35.716
32.317
29.038
25.883
22.86
19.973
17.227
14.626
12.175
9.877
7.733
5.745
3.916
2.245
0.733
-0.622
-1.82
-2.863
-3.753
-4.493
-5.087
-5.537
-5.849
-6.026
-6.075
-6
-5.808
-5.505
-5.097
-4.592
-3.996
-3.318
-2.563
-1.742
-0.861
0.07
1.044
2.052
3.084
4.132
5.187
6.242
7.287
8.315
9.319
10.291
11.224
12.111
12.947
13.725
14.44
15.088
15.664
16.164
16.587
16.929
17.189
17.366
17.46
17.471
17.4
17.249
17.019
16.713
16.334
15.886
15.373
14.8
14.171
13.492
12.768
12.006
11.21
10.386
9.539
8.676
7.8
6.918
6.035
5.154
4.281
3.421
2.576
1.751
0.949
0.173
-0.575
-1.293
-1.981
-2.636
-3.259
-3.85
-4.409
-4.936
-5.433
-5.902
-6.345
-6.763
-7.16
-7.539
-7.902
-8.252
-8.594
-8.929
-9.261
-9.592
-9.924
-10.259
-10.6
-10.947
-11.303
-11.668
-12.042
-12.428
-12.824
-13.231
-13.647
-14.074
-14.508
-14.949
-15.396
-15.845
-16.296
-16.745
-17.191
-17.631
-18.062
-18.481
-18.885
-19.272
-19.637
-19.977
-20.291
-20.573
-20.822
-21.036
-21.211
-21.347
-21.443
-21.496
-21.507
-21.476
-21.402
-21.286
-21.128
-20.93
-20.693
-20.419
-20.109
-19.765
-19.391
-18.989
-18.561
-18.11
-17.639
-17.151
-16.648
-16.132
-15.607
-15.074
-14.536
-13.995
-13.455
-12.917
-12.385
-11.859
-11.343
-10.838
-10.346
-9.867
-9.402
-8.952
-8.518
-8.1
-7.696
-7.309
-6.937
-6.579
-6.237
-5.909
-5.595
-5.293
-5.003
-4.726
-4.459
-4.204
-3.959
-3.727
-3.507
-3.301
-3.11
-2.938
-2.786
-2.656
-2.55
-2.471
-2.42
-2.399
-2.41
-2.452
-2.526
-2.633
-2.774
-2.95
-3.162
-3.413
-3.702
-4.032
-4.402
-4.812
-5.261
-5.742
-6.251
-6.782
-7.334
-7.908
-8.503
-9.115
-9.739
-10.368
-10.994
-11.609
-12.193
-12.722
-13.171
-13.519
-13.755
-13.878
-13.891
-13.798
-13.594
-13.268
-12.818
-12.255
-11.592
-10.84
-10.016
-9.138
-8.252
-7.448
-6.809
-6.406
-6.288
-6.463
-6.942
-7.748
-8.913
-10.483
-12.483
-14.883
-17.659
-20.821
-24.307
-28.005
-31.682
-34.935
-37.39
-38.782
-38.923
-37.723
-35.303
-31.89
-27.86
-23.843
-20.445
-18.217
-17.528
-18.386
-20.386
-22.937
-25.325
-26.591
-25.713
-21.421
-12.679
0.796
18.863
41.205
67.18
95.712
124.082
147.621
162.215
165.654
159.566
147.561
130.88
107.301
68.056
3.705
-90.331
-214.08
-355.87
-497.917
-623.33
-714.367
-761.805
-766.661
-732.441
-667.684
-584.671
-491.643
-399.49
-321.328
-261.253
-220.76
-196.045
-175.038
-152.008
-125.779
-97.449
-73.322
-56.344
-45.426
-38.767
-33.206
-26.802
-19.319
-11.003
-2.448
6.035
14.246
21.857
28.629
34.145
37.928
39.924
40.287
39.25
37.206
34.493
31.366
28.19
25.364
23.109
21.532
20.649
20.378
20.677
21.541
22.905
24.671
26.746
29.04
31.484
34.038
36.652
39.269
41.841
44.328
46.714
48.997
51.173
53.234
55.16
56.921
58.509
59.938
61.224
62.394
63.467
64.461
65.391
66.274
67.115
67.911
68.654
69.336
69.964
70.556
71.148
71.787
72.511
73.346
74.313
75.42
76.677
78.092
79.673
81.424
83.356
85.482
87.811
90.353
93.106
96.052
99.16
102.382
105.674
109.002
112.345
115.696
119.048
122.398
125.742
129.082
132.427
135.788
139.167
142.565
145.982
149.434
152.954
156.598
160.408
164.404
168.584
172.925
177.403
181.986
186.628
191.27
195.83
200.233
204.419
208.344
211.961
215.212
218.012
220.261
221.877
222.808
223.028
222.53
221.311
219.385
216.789
213.589
209.875
205.724
201.19
196.313
191.132
185.702
180.096
174.399
168.676
162.975
157.33
151.769
146.318
140.99
135.772
130.633
125.523
120.412
115.29
110.158
105.019
99.872
94.707
89.516
84.304
79.079
73.851
68.627
63.417
58.234
53.108
48.077
43.182
38.455
33.916
29.582
25.465
21.577
17.928
14.522
11.358
8.436
5.756
3.32
1.13
-0.815
-2.523
-4.002
-5.263
-6.314
-7.164
-7.822
-8.296
-8.596
-8.73
-8.703
-8.522
-8.194
-7.727
-7.131
-6.417
-5.593
-4.67
-3.659
-2.569
-1.41
-0.193
1.075
2.386
3.73
5.099
6.487
7.886
9.287
10.685
12.072
13.442
14.789
16.106
17.389
18.634
19.834
20.988
22.09
23.138
24.129
25.058
25.923
26.721
27.451
28.109
28.693
29.203
29.637
29.994
30.273
30.475
30.598
30.642
30.608
30.495
30.304
30.036
29.692
29.274
28.784
28.223
27.594
26.901
26.147
25.334
24.466
23.546
22.578
21.566
20.512
19.422
18.299
17.147
15.969
14.77
13.554
12.324
11.084
9.839
8.591
7.345
6.103
4.871
3.65
2.446
1.26
0.097
-1.04
-2.15
-3.23
-4.277
-5.29
-6.268
-7.209
-8.113
-8.979
-9.807
-10.596
-11.347
-12.059
-12.734
-13.37
-13.969
-14.531
-15.057
-15.546
-15.999
-16.416
-16.797
-17.142
-17.45
-17.723
-17.959
-18.158
-18.32
-18.447
-18.537
-18.59
-18.609
-18.591
-18.539
-18.452
-18.33
-18.175
-17.985
-17.762
-17.507
-17.219
-16.901
-16.552
-16.174
-15.769
-15.338
-14.881
-14.402
-13.901
-13.382
-12.847
-12.3
-11.744
-11.183
-10.623
-10.069
-9.527
-9.001
-8.498
-8.024
-7.585
-7.188
-6.837
-6.54
-6.303
-6.131
-6.031
-6.008
-6.066
-6.212
-6.451
-6.788
-7.225
-7.766
-8.413
-9.168
-10.03
-10.999
-12.074
-13.251
-14.527
-15.899
-17.363
-18.915
-20.552
-22.264
-24.041
-25.872
-27.744
-29.646
-31.562
-33.479
-35.383
-37.265
-39.12
-40.943
-42.728
-44.462
-46.13
-47.707
-49.17
-50.501
-51.683
-52.703
-53.553
-54.224
-54.715
-55.034
-55.19
-55.182
-54.998
-54.62
-54.043
-53.285
-52.382
-51.396
-50.39
-49.42
-48.54
-47.787
-47.195
-46.813
-46.678
-46.812
-47.218
-47.875
-48.79
-50.034
-51.602
-53.377
-55.146
-56.497
-57.05
-56.691
-55.34
-52.902
-49.479
-45.22
-40.504
-36.319
-33.642
-32.846
-34.016
-36.963
-41.148
-46.158
-51.24
-54.578
-54.256
-49.1
-38.422
-22.113
-0.587
25.694
54.694
82.097
103.501
115.762
119.083
115.597
105.645
86.896
52.075
-6.044
-90.646
-201.602
-330.176
-463.061
-585.661
-681.051
-739.226
-757.635
-739.239
-694.628
-633.83
-565.571
-498.473
-436.183
-381.887
-335.703
-293.209
-252.649
-212.161
-172.053
-136.697
-107.949
-86.287
-71.479
-61.053
-53.054
-46.636
-40.891
-35.193
-29.448
-23.631
-17.667
-11.752
-6.232
-1.313
2.567
4.829
5.393
4.417
2.117
-1.088
-4.844
-8.896
-12.849
-16.284
-18.975
-20.807
-21.773
-21.965
-21.444
-20.27
-18.548
-16.398
-13.935
-11.259
-8.446
-5.551
-2.626
0.284
3.12
5.838
8.403
10.781
12.946
14.87
16.534
17.948
19.135
20.122
20.945
21.635
22.215
22.711
23.135
23.487
23.776
24.012
24.21
24.401
24.622
24.921
25.339
25.908
26.644
27.561
28.665
29.962
31.457
33.15
35.047
37.161
39.505
42.088
44.908
47.957
51.216
54.659
58.261
61.999
65.852
69.803
73.838
77.945
82.114
86.336
90.602
94.896
99.202
103.502
107.78
112.023
116.218
120.353
124.417
128.398
132.286
136.068
139.73
143.259
146.639
149.853
152.886
155.725
158.356
160.767
162.948
164.89
166.584
168.022
169.199
170.107
170.74
171.095
171.166
170.949
170.443
169.645
168.556
167.174
165.501
163.541
161.295
158.769
155.967
152.896
149.564
145.977
142.147
138.083
133.796
129.3
124.608
119.734
114.694
109.504
104.179
98.736
93.192
87.564
81.87
76.126
70.349
64.558
58.77
53.001
47.27
41.594
35.989
30.471
25.057
19.763
14.601
9.587
4.733
0.053
-4.444
-8.747
-12.845
-16.731
-20.398
-23.84
-27.052
-30.031
-32.775
-35.283
-37.554
-39.591
-41.394
-42.968
-44.316
-45.442
-46.352
-47.053
-47.552
-47.855
-47.972
-47.912
-47.684
-47.298
-46.765
-46.095
-45.299
-44.389
-43.376
-42.27
-41.085
-39.83
-38.518
-37.16
-35.766
-34.348
-32.915
-31.476
-30.041
-28.618
-27.215
-25.839
-24.496
-23.193
-21.935
-20.728
-19.575
-18.482
-17.45
-16.483
-15.583
-14.752
-13.992
-13.302
-12.683
-12.136
-11.66
-11.253
-10.915
-10.644
-10.439
-10.295
-10.212
-10.185
-10.212
-10.288
-10.41
-10.574
-10.777
-11.015
-11.283
-11.579
-11.899
-12.239
-12.596
-12.966
-13.347
-13.735
-14.128
-14.523
-14.917
-15.308
-15.694
-16.073
-16.443
-16.802
-17.15
-17.485
-17.805
-18.11
-18.398
-18.67
-18.924
-19.161
-19.381
-19.584
-19.77
-19.941
-20.098
-20.24
-20.37
-20.489
-20.597
-20.696
-20.787
-20.871
-20.95
-21.025
-21.096
-21.166
-21.235
-21.305
-21.376
-21.448
-21.523
-21.601
-21.682
-21.766
-21.854
-21.945
-22.039
-22.136
-22.236
-22.338
-22.441
-22.544
-22.646
-22.745
-22.839
-22.928
-23.008
-23.078
-23.135
-23.177
-23.203
-23.209
-23.194
-23.155
-23.091
-22.998
-22.875
-22.719
-22.529
-22.303
-22.039
-21.736
-21.392
-21.007
-20.579
-20.109
-19.597
-19.043
-18.448
-17.812
-17.138
-16.427
-15.681
-14.904
-14.098
-13.267
-12.416
-11.548
-10.671
-9.79
-8.911
-8.04
-7.184
-6.35
-5.543
-4.769
-4.033
-3.341
-2.695
-2.102
-1.566
-1.093
-0.689
-0.358
-0.107
0.061
0.142
0.133
0.033
-0.159
-0.441
-0.811
-1.271
-1.824
-2.471
-3.21
-4.033
-4.932
-5.893
-6.902
-7.939
-8.979
-9.996
-10.967
-11.871
-12.694
-13.426
-14.06
-14.586
-14.983
-15.238
-15.348
-15.32
-15.175
-14.936
-14.625
-14.282
-13.963
-13.738
-13.674
-13.83
-14.251
-14.967
-16.001
-17.38
-19.14
-21.299
-23.856
-26.771
-29.969
-33.38
-36.929
-40.52
-44.035
-47.312
-50.163
-52.411
-53.888
-54.447
-53.97
-52.294
-49.202
-44.575
-38.423
-30.928
-22.502
-13.548
-4.382
4.584
12.809
19.898
25.729
30.621
35.432
41.08
48.249
57.539
69.534
84.381
101.451
119.235
135.399
147.067
151.369
145.596
126.728
93.256
46.376
-12
-79.328
-154.422
-239.74
-335.5
-436.669
-533.76
-611.351
-655.428
-660.205
-625.738
-560.111
-477.323
-389.743
-309.817
-246.121
-198.96
-165.359
-138.675
-112.583
-86.097
-61.054
-41.284
-29.496
-24.991
-25.074
-26.131
-25.626
-22.823
-17.912
-11.516
-4.181
3.67
11.393
18.161
23.197
26.149
27.101
26.328
24.254
21.311
17.924
14.614
11.875
9.985
9.045
9.047
9.89
11.494
13.792
16.666
19.982
23.614
27.451
31.408
35.401
39.325
43.063
46.499
49.547
52.164
54.328
56.034
57.292
58.119
58.549
58.631
58.411
57.94
57.264
56.427
55.483
54.486
53.493
52.561
51.732
51.037
50.498
50.131
49.946
49.952
50.149
50.533
51.105
51.865
52.815
53.957
55.291
56.814
58.522
60.411
62.476
64.714
67.121
69.691
72.42
75.303
78.333
81.506
84.812
88.242
91.785
95.428
99.158
102.962
106.825
110.733
114.671
118.624
122.578
126.517
130.428
134.294
138.102
141.836
145.482
149.026
152.454
155.752
158.906
161.904
164.733
167.382
169.839
172.094
174.136
175.958
177.55
178.904
180.015
180.875
181.48
181.824
181.905
181.719
181.263
180.538
179.544
178.28
176.749
174.953
172.896
170.583
168.017
165.206
162.156
158.874
155.369
151.65
147.727
143.61
139.311
134.841
130.213
125.439
120.533
115.508
110.377
105.156
99.857
94.497
89.088
83.648
78.189
72.729
67.281
61.861
56.483
51.163
45.913
40.747
35.678
30.72
25.883
21.178
16.617
12.209
7.964
3.889
-0.008
-3.72
-7.242
-10.568
-13.694
-16.618
-19.336
-21.846
-24.148
-26.24
-28.124
-29.8
-31.27
-32.537
-33.605
-34.477
-35.158
-35.655
-35.973
-36.121
-36.105
-35.934
-35.616
-35.161
-34.577
-33.875
-33.064
-32.154
-31.155
-30.078
-28.932
-27.728
-26.476
-25.184
-23.863
-22.522
-21.17
-19.815
-18.465
-17.129
-15.815
-14.53
-13.28
-12.074
-10.916
-9.812
-8.769
-7.789
-6.877
-6.037
-5.271
-4.58
-3.967
-3.433
-2.977
-2.599
-2.299
-2.074
-1.924
-1.846
-1.836
-1.892
-2.01
-2.186
-2.418
-2.699
-3.028
-3.399
-3.808
-4.252
-4.726
-5.227
-5.749
-6.29
-6.844
-7.408
-7.979
-8.552
-9.124
-9.691
-10.252
-10.802
-11.34
-11.863
-12.369
-12.856
-13.324
-13.771
-14.195
-14.599
-14.98
-15.339
-15.678
-15.997
-16.296
-16.578
-16.843
-17.093
-17.327
-17.548
-17.757
-17.953
-18.139
-18.314
-18.479
-18.635
-18.782
-18.921
-19.051
-19.174
-19.29
-19.397
-19.498
-19.59
-19.675
-19.752
-19.821
-19.883
-19.936
-19.979
-20.013
-20.035
-20.045
-20.042
-20.023
-19.987
-19.933
-19.859
-19.764
-19.647
-19.507
-19.344
-19.157
-18.945
-18.709
-18.45
-18.167
-17.861
-17.534
-17.186
-16.819
-16.435
-16.035
-15.62
-15.193
-14.756
-14.31
-13.856
-13.396
-12.933
-12.468
-12.004
-11.545
-11.092
-10.65
-10.222
-9.813
-9.425
-9.064
-8.733
-8.436
-8.176
-7.956
-7.781
-7.652
-7.574
-7.548
-7.578
-7.666
-7.814
-8.026
-8.303
-8.644
-9.052
-9.526
-10.065
-10.668
-11.332
-12.057
-12.842
-13.684
-14.582
-15.531
-16.528
-17.567
-18.64
-19.739
-20.854
-21.977
-23.099
-24.214
-25.317
-26.403
-27.473
-28.526
-29.561
-30.574
-31.56
-32.512
-33.42
-34.275
-35.068
-35.793
-36.447
-37.023
-37.516
-37.919
-38.226
-38.437
-38.537
-38.506
-38.34
-38.035
-37.6
-37.058
-36.423
-35.728
-35.023
-34.354
-33.784
-33.377
-33.167
-33.224
-33.625
-34.34
-35.313
-36.43
-37.476
-38.32
-38.877
-38.932
-38.315
-37.085
-35.481
-33.99
-33.211
-33.426
-34.789
-37.612
-42.113
-48.149
-55.072
-61.69
-66.832
-69.794
-69.976
-66.481
-58.385
-45.219
-27.247
-5.362
19.663
47.279
75.637
101.215
120.517
131.152
134.176
132.799
127.047
113.673
85.964
36.368
-36.878
-131.496
-241.691
-356.42
-464.976
-554.598
-611.566
-632.005
-616.523
-571.905
-512.068
-442.995
-369.996
-299.306
-231.971
-174.624
-131.586
-100.039
-78.462
-62.205
-48.304
-39.292
-35.738
-37.397
-42.559
-46.909
-48.184
-46.032
-40.602
-32.907
-23.817
-13.853
-4.103
4.128
10.192
13.927
15.497
15.347
13.868
11.38
8.395
5.535
3.192
1.557
0.665
0.41
0.722
1.579
2.916
4.632
6.642
8.868
11.251
13.768
16.372
18.99
21.544
23.944
26.106
27.982
29.548
30.789
31.713
32.33
32.656
32.722
32.568
32.232
31.754
31.167
30.502
29.798
29.097
28.444
27.887
27.458
27.18
27.071
27.143
27.406
27.865
28.521
29.367
30.403
31.625
33.035
34.633
36.417
38.384
40.528
42.843
45.324
47.968
50.767
53.718
56.813
60.046
63.412
66.905
70.517
74.238
78.059
81.966
85.948
89.991
94.082
98.206
102.347
106.493
110.626
114.733
118.798
122.807
126.744
130.596
134.348
137.986
141.496
144.865
148.08
151.129
153.999
156.679
159.156
161.422
163.464
165.275
166.844
168.165
169.228
170.029
170.56
170.818
170.798
170.497
169.915
169.049
167.901
166.472
164.766
162.785
160.536
158.025
155.257
152.241
148.987
145.502
141.799
137.887
133.78
129.488
125.026
120.407
115.645
110.756
105.754
100.654
95.473
90.226
84.93
79.6
74.253
68.905
63.573
58.271
53.015
47.821
42.704
37.677
32.754
27.947
23.269
18.73
14.34
10.108
6.042
2.149
-1.564
-5.093
-8.432
-11.58
-14.532
-17.289
-19.85
-22.214
-24.383
-26.36
-28.146
-29.745
-31.162
-32.4
-33.465
-34.362
-35.098
-35.679
-36.113
-36.407
-36.569
-36.608
-36.532
-36.349
-36.069
-35.7
-35.251
-34.73
-34.146
-33.507
-32.821
-32.094
-31.335
-30.55
-29.745
-28.927
-28.1
-27.271
-26.442
-25.618
-24.804
-24.001
-23.213
-22.444
-21.694
-20.967
-20.266
-19.591
-18.944
-18.327
-17.742
-17.188
-16.666
-16.177
-15.721
-15.297
-14.906
-14.546
-14.217
-13.919
-13.649
-13.408
-13.193
-13.005
-12.841
-12.701
-12.584
-12.489
-12.416
-12.365
-12.336
-12.329
-12.343
-12.38
-12.44
-12.522
-12.627
-12.755
-12.905
-13.078
-13.273
-13.488
-13.725
-13.982
-14.258
-14.552
-14.865
-15.195
-15.541
-15.904
-16.281
-16.674
-17.081
-17.502
-17.936
-18.385
-18.846
-19.32
-19.806
-20.303
-20.81
-21.325
-21.848
-22.376
-22.906
-23.438
-23.969
-24.497
-25.019
-25.535
-26.04
-26.535
-27.017
-27.485
-27.937
-28.372
-28.789
-29.188
-29.566
-29.924
-30.261
-30.575
-30.867
-31.136
-31.38
-31.6
-31.793
-31.959
-32.098
-32.208
-32.289
-32.34
-32.361
-32.353
-32.316
-32.25
-32.158
-32.039
-31.896
-31.73
-31.542
-31.334
-31.109
-30.866
-30.609
-30.339
-30.056
-29.763
-29.461
-29.151
-28.833
-28.507
-28.175
-27.837
-27.492
-27.142
-26.786
-26.424
-26.058
-25.688
-25.314
-24.938
-24.558
-24.175
-23.789
-23.4
-23.007
-22.608
-22.203
-21.79
-21.368
-20.936
-20.491
-20.034
-19.561
-19.072
-18.565
-18.039
-17.492
-16.923
-16.332
-15.719
-15.083
-14.426
-13.75
-13.055
-12.344
-11.619
-10.883
-10.137
-9.385
-8.628
-7.868
-7.11
-6.356
-5.61
-4.877
-4.162
-3.47
-2.809
-2.184
-1.602
-1.066
-0.583
-0.156
0.211
0.515
0.754
0.924
1.022
1.045
0.99
0.857
0.647
0.36
0.002
-0.425
-0.916
-1.464
-2.064
-2.715
-3.417
-4.175
-4.989
-5.856
-6.768
-7.721
-8.706
-9.711
-10.725
-11.72
-12.677
-13.58
-14.412
-15.166
-15.831
-16.386
-16.81
-17.085
-17.2
-17.169
-17.009
-16.724
-16.329
-15.841
-15.298
-14.792
-14.402
-14.197
-14.256
-14.618
-15.36
-16.625
-18.447
-20.773
-23.462
-26.234
-28.887
-31.375
-33.53
-35.086
-35.989
-36.284
-36.344
-36.907
-38.318
-40.575
-43.768
-47.992
-53.147
-58.953
-64.454
-68.096
-68.989
-66.74
-60.961
-51.262
-37.113
-18.206
4.884
30.667
58.015
86.4
115.021
142.417
166.535
184.056
192.016
189.929
176.396
151.309
116.331
69.787
11.86
-57.417
-141.506
-239.343
-346.302
-454.92
-550.415
-617.902
-650.18
-645.573
-611.075
-560.497
-502.977
-444.015
-385.999
-326.772
-267.029
-210.458
-160.736
-121.659
-94.494
-77.95
-69.973
-67.943
-69.487
-72.248
-73.798
-72.699
-68.391
-60.921
-50.991
-39.532
-27.404
-15.803
-6.035
1.233
5.793
7.772
7.656
5.92
2.999
-0.498
-3.895
-6.745
-8.79
-9.946
-10.285
-9.853
-8.674
-6.822
-4.4
-1.512
1.747
5.299
9.093
13.061
17.1
21.1
24.94
28.506
31.723
34.551
36.962
38.946
40.511
41.668
42.449
42.9
43.064
42.984
42.7
42.248
41.676
41.035
40.381
39.767
39.233
38.806
38.507
38.355
38.36
38.531
38.869
39.372
40.037
40.868
41.867
43.039
44.386
45.905
47.596
49.456
51.482
53.674
56.029
58.544
61.217
64.045
67.024
70.151
73.421
76.827
80.36
84.01
87.766
91.618
95.554
99.56
103.623
107.73
111.868
116.022
120.177
124.32
128.435
132.507
136.52
140.459
144.309
148.055
151.68
155.171
158.513
161.691
164.693
167.504
170.113
172.508
174.678
176.614
178.306
179.746
180.927
181.842
182.485
182.852
182.939
182.743
182.263
181.498
180.448
179.116
177.503
175.613
173.452
171.025
168.34
165.404
162.226
158.818
155.19
151.354
147.323
143.11
138.731
134.198
129.528
124.735
119.835
114.844
109.777
104.649
99.475
94.272
89.054
83.836
78.632
73.458
68.326
63.252
58.248
53.326
48.5
43.779
39.175
34.698
30.356
26.157
22.109
18.219
14.49
10.928
7.536
4.317
1.271
-1.599
-4.295
-6.816
-9.165
-11.343
-13.353
-15.197
-16.878
-18.399
-19.766
-20.981
-22.05
-22.976
-23.765
-24.423
-24.955
-25.367
-25.666
-25.857
-25.948
-25.945
-25.855
-25.684
-25.441
-25.13
-24.759
-24.334
-23.862
-23.347
-22.796
-22.214
-21.606
-20.976
-20.33
-19.671
-19.002
-18.328
-17.652
-16.978
-16.309
-15.647
-14.997
-14.361
-13.743
-13.144
-12.568
-12.016
-11.491
-10.994
-10.526
-10.088
-9.681
-9.304
-8.959
-8.644
-8.358
-8.102
-7.874
-7.672
-7.496
-7.344
-7.215
-7.105
-7.016
-6.943
-6.887
-6.846
-6.819
-6.804
-6.799
-6.804
-6.817
-6.837
-6.861
-6.888
-6.916
-6.943
-6.968
-6.99
-7.007
-7.017
-7.021
-7.018
-7.007
-6.988
-6.961
-6.926
-6.884
-6.835
-6.78
-6.721
-6.658
-6.594
-6.529
-6.466
-6.405
-6.348
-6.297
-6.252
-6.215
-6.187
-6.169
-6.161
-6.167
-6.185
-6.218
-6.267
-6.333
-6.416
-6.518
-6.64
-6.781
-6.943
-7.126
-7.328
-7.551
-7.794
-8.057
-8.338
-8.638
-8.955
-9.287
-9.633
-9.992
-10.362
-10.74
-11.125
-11.515
-11.908
-12.302
-12.696
-13.087
-13.475
-13.857
-14.231
-14.597
-14.951
-15.293
-15.62
-15.931
-16.224
-16.498
-16.752
-16.984
-17.193
-17.379
-17.54
-17.675
-17.785
-17.867
-17.923
-17.952
-17.953
-17.928
-17.876
-17.798
-17.694
-17.566
-17.415
-17.241
-17.045
-16.83
-16.595
-16.344
-16.076
-15.794
-15.501
-15.196
-14.884
-14.566
-14.244
-13.92
-13.598
-13.278
-12.965
-12.659
-12.363
-12.081
-11.813
-11.564
-11.333
-11.126
-10.942
-10.785
-10.656
-10.557
-10.49
-10.456
-10.457
-10.493
-10.566
-10.677
-10.825
-11.011
-11.234
-11.495
-11.792
-12.123
-12.489
-12.886
-13.313
-13.767
-14.246
-14.748
-15.268
-15.803
-16.35
-16.905
-17.464
-18.022
-18.574
-19.117
-19.645
-20.153
-20.637
-21.092
-21.513
-21.894
-22.231
-22.518
-22.751
-22.924
-23.033
-23.074
-23.043
-22.936
-22.75
-22.483
-22.132
-21.694
-21.169
-20.555
-19.851
-19.056
-18.171
-17.196
-16.132
-14.981
-13.746
-12.429
-11.034
-9.564
-8.025
-6.42
-4.756
-3.037
-1.27
0.54
2.384
4.256
6.148
8.051
9.956
11.855
13.739
15.6
17.427
19.213
20.948
22.624
24.232
25.764
27.211
28.564
29.813
30.952
31.971
32.863
33.62
34.235
34.703
35.019
35.179
35.181
35.023
34.706
34.229
33.594
32.801
31.851
30.748
29.494
28.094
26.552
24.876
23.076
21.166
19.161
17.072
14.91
12.68
10.392
8.057
5.689
3.3
0.904
-1.483
-3.831
-6.104
-8.269
-10.3
-12.186
-13.931
-15.534
-16.988
-18.284
-19.408
-20.365
-21.17
-21.823
-22.321
-22.666
-22.878
-23.027
-23.205
-23.492
-23.942
-24.562
-25.347
-26.312
-27.493
-28.929
-30.651
-32.624
-34.809
-37.239
-39.9
-42.717
-45.494
-47.828
-49.294
-49.595
-48.55
-46.085
-42.354
-37.619
-32.325
-27.261
-23.271
-21.112
-21.232
-23.596
-27.663
-32.615
-37.458
-40.855
-41.241
-36.954
-26.768
-10.282
12.061
39.202
69.75
101.728
132.272
157.905
175.346
181.786
175.017
153.419
115.762
62.659
-2.619
-76.034
-154.403
-237.34
-326.031
-418.594
-507.711
-580.213
-623.391
-631.373
-607.059
-562.122
-508.981
-455.581
-404.796
-354.472
-303.03
-251.658
-203.38
-162.271
-130.155
-106.432
-89.637
-77.683
-69.064
-62.784
-57.276
-51.046
-43.405
-34.205
-23.846
-13.074
-2.394
7.753
16.59
23.338
27.62
29.39
28.95
26.789
23.308
18.903
14.086
9.407
5.29
1.98
-0.442
-1.997
-2.713
-2.612
-1.745
-0.211
1.879
4.429
7.341
10.548
13.969
17.485
20.97
24.302
27.36
30.073
32.401
34.314
35.806
36.894
37.596
37.953
38.017
37.833
37.45
36.91
36.255
35.535
34.801
34.107
33.504
33.027
32.697
32.533
32.544
32.732
33.1
33.641
34.344
35.202
36.213
37.371
38.677
40.127
41.715
43.435
45.283
47.253
49.342
51.547
53.864
56.29
58.82
61.454
64.187
67.016
69.935
72.936
76.012
79.155
82.357
85.609
88.903
92.23
95.582
98.95
102.326
105.703
109.07
112.42
115.742
119.028
122.268
125.452
128.568
131.607
134.557
137.405
140.142
142.754
145.23
147.559
149.728
151.727
153.545
155.171
156.595
157.808
158.802
159.568
160.098
160.388
160.43
160.22
159.755
159.031
158.045
156.797
155.285
153.511
151.476
149.182
146.633
143.833
140.79
137.51
134.001
130.274
126.34
122.21
117.897
113.417
108.783
104.013
99.122
94.127
89.047
83.899
78.7
73.47
68.225
62.984
57.765
52.583
47.455
42.399
37.428
32.558
27.803
23.175
18.687
14.351
10.177
6.174
2.352
-1.282
-4.721
-7.96
-10.994
-13.82
-16.435
-18.838
-21.031
-23.013
-24.787
-26.356
-27.724
-28.896
-29.877
-30.675
-31.295
-31.746
-32.035
-32.17
-32.16
-32.013
-31.738
-31.344
-30.839
-30.231
-29.53
-28.743
-27.878
-26.945
-25.949
-24.899
-23.803
-22.668
-21.5
-20.307
-19.095
-17.87
-16.639
-15.407
-14.179
-12.96
-11.754
-10.567
-9.401
-8.261
-7.149
-6.068
-5.022
-4.011
-3.04
-2.108
-1.218
-0.372
0.43
1.186
1.895
2.555
3.165
3.725
4.232
4.686
5.087
5.432
5.723
5.959
6.138
6.262
6.331
6.345
6.305
6.212
6.066
5.87
5.625
5.333
4.995
4.613
4.191
3.73
3.232
2.7
2.137
1.543
0.923
0.278
-0.389
-1.075
-1.778
-2.494
-3.22
-3.954
-4.692
-5.431
-6.168
-6.899
-7.622
-8.333
-9.03
-9.709
-10.369
-11.005
-11.617
-12.203
-12.759
-13.287
-13.783
-14.248
-14.681
-15.083
-15.452
-15.789
-16.095
-16.37
-16.614
-16.827
-17.012
-17.167
-17.294
-17.395
-17.47
-17.522
-17.55
-17.558
-17.548
-17.52
-17.478
-17.424
-17.36
-17.289
-17.214
-17.138
-17.062
-16.991
-16.928
-16.873
-16.831
-16.803
-16.791
-16.796
-16.821
-16.866
-16.932
-17.021
-17.133
-17.27
-17.432
-17.619
-17.832
-18.073
-18.34
-18.635
-18.957
-19.306
-19.682
-20.085
-20.514
-20.968
-21.446
-21.948
-22.471
-23.014
-23.574
-24.151
-24.74
-25.34
-25.948
-26.561
-27.178
-27.795
-28.411
-29.023
-29.63
-30.229
-30.819
-31.397
-31.962
-32.512
-33.045
-33.56
-34.054
-34.526
-34.973
-35.394
-35.788
-36.151
-36.484
-36.783
-37.047
-37.275
-37.465
-37.615
-37.724
-37.792
-37.816
-37.796
-37.731
-37.621
-37.464
-37.261
-37.009
-36.709
-36.359
-35.958
-35.506
-35.001
-34.442
-33.828
-33.158
-32.432
-31.649
-30.809
-29.911
-28.955
-27.943
-26.875
-25.752
-24.574
-23.343
-22.062
-20.732
-19.356
-17.937
-16.479
-14.985
-13.46
-11.909
-10.336
-8.747
-7.147
-5.542
-3.94
-2.347
-0.77
0.783
2.303
3.783
5.213
6.585
7.891
9.12
10.266
11.317
12.265
13.102
13.821
14.415
14.879
15.206
15.393
15.437
15.337
15.09
14.696
14.152
13.457
12.616
11.633
10.517
9.276
7.916
6.447
4.879
3.226
1.496
-0.305
-2.179
-4.121
-6.118
-8.153
-10.198
-12.231
-14.238
-16.205
-18.112
-19.945
-21.688
-23.33
-24.879
-26.334
-27.682
-28.899
-29.946
-30.798
-31.458
-31.954
-32.329
-32.625
-32.866
-33.074
-33.28
-33.505
-33.787
-34.153
-34.602
-35.145
-35.772
-36.509
-37.451
-38.61
-39.891
-41.096
-41.854
-41.826
-40.929
-39.113
-36.288
-32.58
-28.153
-23.377
-19.181
-16.443
-15.502
-16.433
-18.997
-22.589
-26.785
-30.928
-33.423
-32.572
-27.183
-16.509
-0.674
19.614
43.828
70.933
98.483
123.473
142.865
153.555
153.287
140.277
112.247
69.069
13.778
-50.631
-120.64
-195.762
-279.965
-372.076
-465.822
-548.948
-603.511
-620.039
-597.83
-542.944
-469.267
-387.368
-305.662
-233.883
-177.037
-138.539
-117.978
-107.382
-99.75
-91.149
-80.376
-71.032
-65.524
-62.701
-60.649
-56.726
-49.531
-39.703
-28.371
-16.661
-5.591
3.838
10.999
15.666
17.851
17.951
16.458
13.763
10.386
6.951
3.894
1.489
-0.125
-0.988
-1.135
-0.557
0.691
2.523
4.858
7.601
10.673
14.021
17.567
21.212
24.846
28.349
31.608
34.552
37.134
39.328
41.122
42.515
43.518
44.16
44.482
44.528
44.34
43.961
43.43
42.794
42.107
41.422
40.791
40.249
39.823
39.532
39.388
39.401
39.578
39.917
40.413
41.063
41.867
42.825
43.94
45.209
46.63
48.199
49.913
51.767
53.762
55.892
58.157
60.551
63.073
65.719
68.486
71.368
74.358
77.449
80.63
83.894
87.23
90.628
94.079
97.572
101.098
104.646
108.207
111.771
115.328
118.867
122.377
125.848
129.268
132.626
135.91
139.108
142.208
145.198
148.066
150.801
153.39
155.822
158.087
160.174
162.073
163.775
165.272
166.557
167.621
168.459
169.066
169.436
169.566
169.453
169.094
168.486
167.629
166.521
165.163
163.556
161.702
159.603
157.264
154.688
151.883
148.856
145.613
142.166
138.523
134.695
130.695
126.534
122.226
117.785
113.225
108.559
103.803
98.971
94.078
89.139
84.166
79.176
74.18
69.194
64.23
59.301
54.42
49.599
44.85
40.184
35.614
31.147
26.796
22.567
18.471
14.513
10.7
7.038
3.533
0.187
-2.996
-6.014
-8.865
-11.547
-14.062
-16.41
-18.592
-20.61
-22.466
-24.163
-25.703
-27.091
-28.328
-29.419
-30.368
-31.179
-31.855
-32.401
-32.822
-33.122
-33.308
-33.383
-33.354
-33.225
-33.003
-32.692
-32.297
-31.825
-31.279
-30.666
-29.989
-29.255
-28.468
-27.633
-26.755
-25.839
-24.888
-23.908
-22.902
-21.875
-20.83
-19.772
-18.704
-17.631
-16.556
-15.484
-14.418
-13.364
-12.324
-11.303
-10.303
-9.329
-8.383
-7.469
-6.589
-5.745
-4.941
-4.178
-3.46
-2.789
-2.167
-1.597
-1.081
-0.619
-0.214
0.133
0.422
0.65
0.819
0.928
0.975
0.959
0.881
0.739
0.535
0.267
-0.063
-0.456
-0.911
-1.427
-2.003
-2.638
-3.332
-4.084
-4.895
-5.764
-6.69
-7.674
-8.715
-9.813
-10.967
-12.175
-13.436
-14.747
-16.106
-17.509
-18.952
-20.431
-21.942
-23.481
-25.047
-26.635
-28.241
-29.862
-31.493
-33.128
-34.761
-36.378
-37.969
-39.525
-41.039
-42.511
-43.936
-45.307
-46.619
-47.867
-49.043
-50.138
-51.131
-51.993
-52.7
-53.232
-53.585
-53.771
-53.795
-53.659
-53.361
-52.895
-52.271
-51.506
-50.599
-49.551
-48.364
-47.061
-45.714
-44.416
-43.249
-42.269
-41.488
-40.904
-40.54
-40.437
-40.636
-41.166
-41.999
-43.111
-44.562
-46.357
-48.407
-50.488
-52.167
-52.996
-52.698
-51.12
-48.143
-43.888
-38.702
-33.143
-28.176
-24.81
-23.723
-25.212
-29.234
-35.227
-42.16
-48.769
-53.239
-53.535
-48.027
-35.687
-16.095
10.309
42.242
77.937
114.645
148.798
176.909
195.588
201.604
192.475
166.317
122.888
64.861
-4.205
-80.645
-163.08
-254.311
-354.814
-460.952
-563.405
-643.951
-687.124
-685
-636.69
-556.283
-462.461
-371.214
-298.48
-248.315
-216.61
-197.716
-181.002
-161.188
-138.848
-116.011
-97.949
-86.79
-80.923
-77.73
-73.462
-66.397
-56.837
-45.349
-32.86
-20.11
-7.515
4.062
13.62
20.727
25.302
27.538
27.853
26.592
24.068
20.755
17.183
13.698
10.521
7.756
5.414
3.561
2.256
1.497
1.249
1.457
2.073
3.064
4.399
6.024
7.869
9.856
11.91
13.974
15.992
17.906
19.66
21.19
22.46
23.462
24.198
24.687
24.953
25.021
24.928
24.719
24.435
24.116
23.797
23.507
23.276
23.138
23.126
23.276
23.612
24.15
24.9
25.869
27.058
28.468
30.095
31.929
33.963
36.192
38.611
41.22
44.014
46.985
50.129
53.436
56.9
60.514
64.271
68.162
72.181
76.319
80.569
84.921
89.368
93.896
98.495
103.149
107.846
112.57
117.307
122.039
126.753
131.431
136.059
140.62
145.1
149.482
153.751
157.891
161.887
165.723
169.385
172.857
176.124
179.173
181.99
184.56
186.872
188.912
190.669
192.132
193.293
194.141
194.671
194.875
194.749
194.29
193.496
192.366
190.902
189.106
186.982
184.536
181.775
178.706
175.338
171.682
167.75
163.553
159.106
154.424
149.521
144.414
139.121
133.659
128.047
122.304
116.45
110.506
104.492
98.428
92.337
86.237
80.151
74.098
68.098
62.168
56.329
50.596
44.987
39.515
34.196
29.043
24.067
19.28
14.69
10.306
6.136
2.184
-1.544
-5.044
-8.315
-11.355
-14.163
-16.74
-19.088
-21.211
-23.11
-24.792
-26.263
-27.528
-28.595
-29.473
-30.17
-30.696
-31.061
-31.274
-31.345
-31.286
-31.106
-30.816
-30.426
-29.946
-29.387
-28.758
-28.068
-27.327
-26.542
-25.722
-24.875
-24.008
-23.127
-22.24
-21.351
-20.467
-19.593
-18.734
-17.893
-17.075
-16.282
-15.517
-14.783
-14.081
-13.412
-12.776
-12.175
-11.608
-11.075
-10.576
-10.11
-9.676
-9.274
-8.902
-8.56
-8.245
-7.958
-7.696
-7.46
-7.248
-7.059
-6.893
-6.749
-6.626
-6.525
-6.445
-6.385
-6.344
-6.324
-6.322
-6.34
-6.377
-6.433
-6.508
-6.604
-6.72
-6.857
-7.015
-7.195
-7.396
-7.621
-7.867
-8.137
-8.43
-8.745
-9.084
-9.445
-9.828
-10.234
-10.66
-11.107
-11.572
-12.055
-12.554
-13.067
-13.592
-14.128
-14.672
-15.224
-15.78
-16.339
-16.899
-17.457
-18.011
-18.558
-19.096
-19.622
-20.134
-20.629
-21.105
-21.559
-21.99
-22.396
-22.774
-23.123
-23.441
-23.727
-23.98
-24.199
-24.383
-24.533
-24.647
-24.726
-24.77
-24.782
-24.76
-24.708
-24.625
-24.514
-24.376
-24.212
-24.025
-23.817
-23.59
-23.347
-23.09
-22.822
-22.546
-22.266
-21.985
-21.705
-21.43
-21.163
-20.906
-20.663
-20.437
-20.23
-20.045
-19.885
-19.751
-19.646
-19.571
-19.528
-19.517
-19.541
-19.598
-19.69
-19.816
-19.977
-20.172
-20.401
-20.663
-20.957
-21.283
-21.638
-22.022
-22.431
-22.865
-23.32
-23.794
-24.284
-24.787
-25.301
-25.821
-26.344
-26.868
-27.389
-27.903
-28.407
-28.899
-29.374
-29.829
-30.263
-30.671
-31.052
-31.404
-31.724
-32.011
-32.263
-32.479
-32.657
-32.797
-32.896
-32.955
-32.971
-32.946
-32.878
-32.768
-32.616
-32.423
-32.189
-31.916
-31.604
-31.256
-30.874
-30.458
-30.011
-29.536
-29.034
-28.509
-27.963
-27.398
-26.818
-26.224
-25.62
-25.007
-24.388
-23.766
-23.141
-22.518
-21.896
-21.28
-20.671
-20.071
-19.482
-18.907
-18.348
-17.806
-17.284
-16.783
-16.306
-15.852
-15.424
-15.023
-14.65
-14.305
-13.99
-13.703
-13.447
-13.22
-13.023
-12.854
-12.714
-12.602
-12.518
-12.46
-12.428
-12.422
-12.44
-12.482
-12.547
-12.634
-12.741
-12.867
-13.011
-13.171
-13.345
-13.531
-13.727
-13.93
-14.139
-14.352
-14.565
-14.777
-14.985
-15.187
-15.381
-15.565
-15.736
-15.894
-16.036
-16.16
-16.266
-16.352
-16.417
-16.459
-16.479
-16.474
-16.445
-16.39
-16.309
-16.201
-16.066
-15.904
-15.715
-15.499
-15.257
-14.99
-14.698
-14.384
-14.047
-13.691
-13.316
-12.924
-12.518
-12.1
-11.671
-11.234
-10.792
-10.345
-9.897
-9.449
-9.004
-8.562
-8.127
-7.699
-7.28
-6.872
-6.477
-6.097
-5.731
-5.383
-5.053
-4.742
-4.452
-4.183
-3.936
-3.712
-3.511
-3.333
-3.179
-3.048
-2.94
-2.854
-2.791
-2.749
-2.728
-2.727
-2.745
-2.781
-2.835
-2.905
-2.991
-3.093
-3.209
-3.339
-3.482
-3.637
-3.803
-3.981
-4.168
-4.365
-4.569
-4.78
-4.998
-5.221
-5.448
-5.677
-5.909
-6.142
-6.375
-6.607
-6.837
-7.064
-7.287
-7.505
-7.717
-7.921
-8.117
-8.303
-8.478
-8.64
-8.788
-8.921
-9.035
-9.13
-9.203
-9.253
-9.277
-9.274
-9.24
-9.176
-9.077
-8.945
-8.776
-8.571
-8.328
-8.046
-7.726
-7.366
-6.967
-6.528
-6.05
-5.532
-4.977
-4.385
-3.757
-3.096
-2.402
-1.679
-0.93
-0.157
0.636
1.446
2.269
3.102
3.938
4.773
5.602
6.419
7.217
7.991
8.733
9.437
10.096
10.707
11.263
11.761
12.196
12.566
12.869
13.104
13.268
13.358
13.372
13.309
13.169
12.951
12.656
12.284
11.839
11.325
10.746
10.108
9.41
8.655
7.839
6.967
6.046
5.083
4.086
3.069
2.048
1.046
0.096
-0.783
-1.579
-2.283
-2.891
-3.39
-3.767
-4.017
-4.14
-4.136
-4.013
-3.776
-3.433
-3.022
-2.596
-2.227
-2
-1.977
-2.201
-2.718
-3.566
-4.782
-6.397
-8.402
-10.756
-13.43
-16.388
-19.603
-23.047
-26.622
-30.183
-33.554
-36.534
-38.943
-40.639
-41.432
-41.064
-39.389
-36.4
-32.276
-27.456
-22.354
-17.25
-12.508
-8.596
-5.73
-3.831
-2.386
-0.194
3.911
10.713
20.968
35.168
53.004
73.442
94.588
113.163
125.623
128.712
118.888
94.287
55.513
3.87
-58.105
-129.642
-213.218
-307.69
-407.965
-502.325
-572.157
-606.046
-601.059
-563.686
-510.68
-454.221
-400.466
-350.993
-301.454
-250.445
-200.251
-154.147
-116.395
-88.532
-69.417
-57.385
-50.39
-46.893
-45.719
-45.092
-43.354
-39.702
-33.974
-26.569
-18.154
-9.222
-0.266
7.883
14.395
18.876
21.301
21.943
21.254
19.619
17.382
15.014
12.983
11.573
10.915
11.008
11.763
13.114
15.014
17.37
20.068
23.001
26.073
29.219
32.38
35.47
38.387
41.027
43.314
45.208
46.696
47.774
48.447
48.734
48.666
48.291
47.659
46.815
45.804
44.666
43.449
42.206
40.989
39.854
38.841
37.98
37.291
36.789
36.486
36.387
36.493
36.795
37.29
37.975
38.849
39.91
41.152
42.568
44.148
45.885
47.767
49.787
51.935
54.201
56.576
59.05
61.615
64.26
66.976
69.751
72.572
75.427
78.302
81.186
84.065
86.928
89.764
92.562
95.311
98.003
100.629
103.18
105.649
108.028
110.311
112.491
114.563
116.521
118.361
120.08
121.673
123.137
124.47
125.669
126.733
127.662
128.453
129.107
129.623
130.002
130.243
130.348
130.316
130.149
129.847
129.411
128.841
128.139
127.305
126.339
125.243
124.018
122.664
121.181
119.572
117.837
115.978
113.996
111.895
109.676
107.343
104.898
102.347
99.692
96.939
94.093
91.158
88.139
85.044
81.877
78.646
75.357
72.017
68.633
65.214
61.768
58.304
54.829
51.353
47.885
44.434
41.01
37.621
34.279
30.991
27.768
24.618
21.552
18.578
15.704
12.938
10.288
7.76
5.362
3.098
0.974
-1.005
-2.835
-4.513
-6.035
-7.399
-8.602
-9.644
-10.524
-11.241
-11.796
-12.191
-12.427
-12.506
-12.432
-12.208
-11.838
-11.327
-10.679
-9.9
-8.996
-7.974
-6.842
-5.606
-4.275
-2.856
-1.359
0.21
1.841
3.527
5.258
7.028
8.828
10.649
12.484
14.325
16.163
17.992
19.802
21.588
23.342
25.057
26.726
28.345
29.906
31.405
32.836
34.193
35.474
36.672
37.785
38.809
39.741
40.579
41.322
41.968
42.517
42.968
43.321
43.576
43.734
43.796
43.762
43.635
43.416
43.106
42.709
42.226
41.661
41.016
40.295
39.5
38.636
37.704
36.71
35.656
34.547
33.385
32.175
30.922
29.628
28.299
26.939
25.55
24.139
22.707
21.26
19.8
18.332
16.858
15.382
13.908
12.438
10.975
9.524
8.087
6.666
5.265
3.886
2.533
1.207
-0.089
-1.352
-2.581
-3.772
-4.924
-6.034
-7.101
-8.122
-9.095
-10.019
-10.892
-11.714
-12.482
-13.196
-13.856
-14.46
-15.009
-15.501
-15.938
-16.319
-16.643
-16.913
-17.127
-17.287
-17.395
-17.45
-17.454
-17.41
-17.32
-17.184
-17.006
-16.788
-16.533
-16.243
-15.921
-15.57
-15.194
-14.796
-14.379
-13.948
-13.505
-13.054
-12.598
-12.142
-11.688
-11.24
-10.8
-10.372
-9.958
-9.561
-9.184
-8.829
-8.498
-8.195
-7.92
-7.676
-7.464
-7.286
-7.143
-7.034
-6.961
-6.922
-6.919
-6.951
-7.016
-7.114
-7.244
-7.404
-7.592
-7.806
-8.045
-8.306
-8.586
-8.883
-9.194
-9.517
-9.85
-10.191
-10.537
-10.886
-11.236
-11.586
-11.931
-12.271
-12.603
-12.924
-13.232
-13.526
-13.804
-14.063
-14.303
-14.523
-14.72
-14.895
-15.046
-15.174
-15.278
-15.357
-15.413
-15.446
-15.457
-15.446
-15.416
-15.368
-15.302
-15.222
-15.127
-15.02
-14.9
-14.771
-14.631
-14.483
-14.328
-14.166
-13.998
-13.826
-13.651
-13.474
-13.295
-13.116
-12.937
-12.759
-12.583
-12.41
-12.239
-12.073
-11.911
-11.753
-11.6
-11.452
-11.309
-11.169
-11.032
-10.897
-10.763
-10.629
-10.493
-10.353
-10.21
-10.061
-9.905
-9.741
-9.568
-9.385
-9.19
-8.982
-8.761
-8.526
-8.276
-8.011
-7.73
-7.434
-7.123
-6.797
-6.456
-6.098
-5.726
-5.337
-4.933
-4.513
-4.077
-3.625
-3.158
-2.676
-2.182
-1.676
-1.158
-0.632
-0.097
0.443
0.986
1.531
2.073
2.61
3.138
3.651
4.144
4.615
5.058
5.47
5.847
6.188
6.49
6.752
6.974
7.152
7.284
7.368
7.401
7.38
7.302
7.163
6.96
6.692
6.359
5.963
5.501
4.974
4.379
3.714
2.979
2.183
1.329
0.425
-0.517
-1.481
-2.446
-3.383
-4.274
-5.104
-5.86
-6.535
-7.112
-7.577
-7.927
-8.158
-8.275
-8.292
-8.217
-8.06
-7.853
-7.632
-7.442
-7.341
-7.364
-7.54
-7.91
-8.508
-9.38
-10.569
-12.08
-13.912
-16.044
-18.425
-21.032
-23.849
-26.818
-29.885
-32.971
-35.942
-38.735
-41.343
-43.647
-45.467
-46.504
-46.336
-44.757
-41.81
-37.527
-31.91
-25.085
-17.291
-9.242
-2.149
3.212
6.606
8.024
7.655
5.757
2.698
-0.287
-1.132
1.733
9.404
22.31
40.008
62.054
86.465
110.03
130.323
143.952
149.386
146.095
129.181
96.389
46.623
-21.433
-101.663
-190.622
-286.523
-382.525
-473.007
-546.939
-591.583
-602.865
-582.708
-540.871
-490.056
-437.699
-386.554
-335.612
-283.717
-232.493
-185.615
-147.113
-118.551
-99.229
-87.445
-80.868
-77.86
-77.185
-76.97
-75.507
-71.951
-66.049
-58.188
-49.134
-39.42
-29.544
-20.365
-12.75
-7.164
-3.717
-2.173
-2.106
-3.167
-5.029
-7.238
-9.289
-10.841
-11.724
-11.911
-11.478
-10.482
-8.957
-6.972
-4.635
-2.045
0.711
3.564
6.48
9.402
12.241
14.906
17.302
19.363
21.062
22.388
23.337
23.92
24.156
24.08
23.741
23.187
22.462
21.609
20.663
19.666
18.666
17.713
16.855
16.131
15.564
15.175
14.976
14.977
15.183
15.594
16.201
16.999
17.984
19.155
20.509
22.042
23.747
25.616
27.64
29.813
32.126
34.572
37.143
39.83
42.626
45.522
48.513
51.589
54.741
57.958
61.23
64.545
67.894
71.265
74.647
78.03
81.404
84.759
88.087
91.378
94.625
97.818
100.952
104.016
107.006
109.912
112.728
115.446
118.061
120.564
122.95
125.211
127.34
129.333
131.182
132.881
134.424
135.806
137.02
138.062
138.927
139.608
140.103
140.407
140.516
140.428
140.139
139.648
138.953
138.053
136.946
135.632
134.113
132.388
130.46
128.331
126.004
123.483
120.773
117.88
114.81
111.571
108.171
104.618
100.923
97.095
93.147
89.089
84.935
80.696
76.387
72.02
67.61
63.172
58.718
54.263
49.822
45.408
41.033
36.712
32.458
28.281
24.194
20.209
16.335
12.582
8.961
5.478
2.141
-1.042
-4.066
-6.927
-9.62
-12.142
-14.491
-16.666
-18.665
-20.489
-22.14
-23.618
-24.928
-26.073
-27.056
-27.884
-28.561
-29.094
-29.49
-29.755
-29.897
-29.923
-29.84
-29.657
-29.382
-29.021
-28.583
-28.075
-27.504
-26.879
-26.206
-25.491
-24.742
-23.964
-23.163
-22.345
-21.516
-20.68
-19.842
-19.007
-18.179
-17.362
-16.56
-15.776
-15.012
-14.272
-13.558
-12.87
-12.212
-11.583
-10.985
-10.418
-9.884
-9.381
-8.911
-8.472
-8.067
-7.693
-7.35
-7.04
-6.76
-6.511
-6.293
-6.105
-5.948
-5.821
-5.724
-5.657
-5.62
-5.613
-5.634
-5.683
-5.759
-5.863
-5.992
-6.145
-6.323
-6.524
-6.746
-6.989
-7.253
-7.535
-7.835
-8.151
-8.484
-8.831
-9.192
-9.566
-9.952
-10.348
-10.754
-11.169
-11.592
-12.02
-12.453
-12.89
-13.328
-13.767
-14.204
-14.638
-15.068
-15.492
-15.909
-16.318
-16.718
-17.107
-17.486
-17.854
-18.21
-18.553
-18.883
-19.201
-19.507
-19.799
-20.078
-20.345
-20.599
-20.841
-21.071
-21.288
-21.492
-21.684
-21.864
-22.032
-22.188
-22.332
-22.464
-22.586
-22.697
-22.798
-22.89
-22.973
-23.047
-23.113
-23.173
-23.225
-23.271
-23.311
-23.345
-23.375
-23.398
-23.417
-23.43
-23.438
-23.44
-23.437
-23.427
-23.41
-23.387
-23.356
-23.319
-23.274
-23.222
-23.163
-23.097
-23.024
-22.944
-22.858
-22.766
-22.667
-22.563
-22.453
-22.339
-22.219
-22.094
-21.965
-21.832
-21.694
-21.553
-21.408
-21.259
-21.107
-20.952
-20.794
-20.635
-20.474
-20.313
-20.151
-19.99
-19.83
-19.673
-19.518
-19.366
-19.218
-19.075
-18.937
-18.805
-18.678
-18.557
-18.442
-18.334
-18.232
-18.137
-18.048
-17.966
-17.89
-17.82
-17.758
-17.701
-17.652
-17.609
-17.573
-17.543
-17.521
-17.505
-17.497
-17.495
-17.501
-17.513
-17.532
-17.557
-17.588
-17.626
-17.668
-17.714
-17.764
-17.817
-17.873
-17.93
-17.988
-18.045
-18.101
-18.154
-18.204
-18.248
-18.286
-18.315
-18.334
-18.342
-18.337
-18.316
-18.279
-18.222
-18.143
-18.04
-17.911
-17.753
-17.562
-17.337
-17.074
-16.771
-16.424
-16.032
-15.592
-15.101
-14.557
-13.959
-13.303
-12.589
-11.815
-10.98
-10.083
-9.125
-8.105
-7.024
-5.885
-4.688
-3.435
-2.13
-0.775
0.627
2.071
3.554
5.071
6.616
8.185
9.769
11.363
12.959
14.549
16.126
17.681
19.206
20.692
22.132
23.515
24.833
26.078
27.239
28.309
29.277
30.133
30.871
31.481
31.959
32.297
32.494
32.546
32.452
32.214
31.83
31.302
30.63
29.818
28.869
27.787
26.582
25.263
23.841
22.328
20.735
19.077
17.364
15.604
13.802
11.962
10.087
8.189
6.282
4.382
2.509
0.68
-1.088
-2.778
-4.377
-5.873
-7.256
-8.523
-9.676
-10.706
-11.599
-12.328
-12.877
-13.252
-13.476
-13.575
-13.578
-13.505
-13.381
-13.26
-13.191
-13.233
-13.437
-13.813
-14.383
-15.204
-16.274
-17.555
-18.934
-20.135
-20.9
-21.063
-20.388
-18.719
-16.175
-12.976
-9.59
-6.794
-5.173
-5.201
-7.495
-12.284
-19.165
-27.441
-35.926
-43.079
-47.708
-48.576
-44.154
-33.5
-16.598
5.975
33.16
63.302
94.477
124.452
149.348
165.322
170.703
163.44
143.376
112.675
70.79
18.308
-44.723
-122.552
-216.055
-321.451
-430.239
-525.785
-591.323
-618.729
-608.139
-567.716
-509.414
-441.842
-369.769
-298.225
-235.324
-188.127
-162.225
-158.025
-163.291
-165.233
-155.484
-128.511
-91.789
-56.403
-27.812
-11.186
-5.126
-3.816
-5.185
-7.051
-8.171
-9.825
-12.12
-14.464
-16.54
-17.298
-15.844
-12.424
-7.724
-2.547
2.483
7.141
11.348
14.796
17.02
17.969
17.993
17.717
17.641
17.913
18.534
19.533
21.051
23.148
25.684
28.324
30.784
32.949
34.779
36.291
37.463
38.224
38.582
38.618
38.416
38.055
37.598
37.07
36.527
36.067
35.752
35.632
35.722
35.993
36.439
37.068
37.88
38.88
40.065
41.414
42.918
44.575
46.365
48.27
50.254
52.257
54.247
56.213
58.164
60.139
62.162
64.243
66.396
68.634
70.966
73.403
75.942
78.566
81.269
84.052
86.921
89.897
92.987
96.182
99.468
102.819
106.214
109.638
113.072
116.493
119.887
123.237
126.538
129.791
132.991
136.13
139.199
142.184
145.074
147.862
150.54
153.101
155.538
157.842
160.009
162.033
163.909
165.628
167.183
168.564
169.76
170.765
171.571
172.173
172.562
172.736
172.688
172.418
171.922
171.2
170.249
169.07
167.661
166.025
164.161
162.072
159.76
157.229
154.482
151.524
148.361
145
141.446
137.709
133.796
129.717
125.482
121.101
116.585
111.945
107.194
102.343
97.406
92.395
87.324
82.206
77.055
71.884
66.705
61.531
56.374
51.246
46.158
41.123
36.15
31.25
26.434
21.711
17.092
12.585
8.199
3.943
-0.176
-4.151
-7.974
-11.639
-15.141
-18.473
-21.632
-24.613
-27.412
-30.026
-32.453
-34.69
-36.737
-38.593
-40.258
-41.733
-43.019
-44.118
-45.031
-45.761
-46.311
-46.684
-46.884
-46.915
-46.782
-46.49
-46.044
-45.45
-44.716
-43.849
-42.855
-41.743
-40.521
-39.199
-37.785
-36.289
-34.721
-33.092
-31.411
-29.69
-27.94
-26.17
-24.393
-22.618
-20.856
-19.116
-17.41
-15.746
-14.133
-12.58
-11.095
-9.687
-8.361
-7.127
-5.988
-4.952
-4.022
-3.204
-2.501
-1.914
-1.446
-1.099
-0.871
-0.763
-0.773
-0.898
-1.136
-1.483
-1.934
-2.483
-3.124
-3.851
-4.657
-5.533
-6.471
-7.464
-8.503
-9.579
-10.685
-11.811
-12.949
-14.092
-15.23
-16.356
-17.463
-18.544
-19.591
-20.598
-21.56
-22.471
-23.327
-24.124
-24.859
-25.528
-26.13
-26.663
-27.128
-27.523
-27.849
-28.108
-28.302
-28.433
-28.505
-28.521
-28.487
-28.405
-28.282
-28.122
-27.93
-27.712
-27.474
-27.219
-26.954
-26.684
-26.413
-26.146
-25.888
-25.642
-25.413
-25.203
-25.016
-24.854
-24.719
-24.612
-24.534
-24.487
-24.469
-24.481
-24.523
-24.593
-24.69
-24.812
-24.956
-25.121
-25.304
-25.5
-25.708
-25.923
-26.143
-26.364
-26.582
-26.795
-26.999
-27.191
-27.369
-27.531
-27.673
-27.795
-27.896
-27.973
-28.028
-28.06
-28.069
-28.058
-28.027
-27.978
-27.914
-27.838
-27.752
-27.659
-27.564
-27.469
-27.378
-27.296
-27.226
-27.171
-27.137
-27.127
-27.144
-27.191
-27.273
-27.392
-27.549
-27.749
-27.991
-28.279
-28.611
-28.99
-29.414
-29.882
-30.394
-30.947
-31.538
-32.164
-32.82
-33.502
-34.203
-34.919
-35.641
-36.364
-37.081
-37.782
-38.462
-39.11
-39.721
-40.284
-40.792
-41.238
-41.612
-41.907
-42.117
-42.234
-42.252
-42.165
-41.968
-41.657
-41.227
-40.675
-39.999
-39.196
-38.266
-37.208
-36.024
-34.714
-33.282
-31.73
-30.064
-28.288
-26.409
-24.435
-22.372
-20.231
-18.02
-15.749
-13.429
-11.071
-8.687
-6.29
-3.892
-1.505
0.857
3.18
5.453
7.661
9.792
11.834
13.775
15.605
17.312
18.887
20.319
21.6
22.72
23.673
24.45
25.045
25.452
25.668
25.689
25.515
25.145
24.58
23.824
22.88
21.754
20.454
18.988
17.367
15.603
13.708
11.699
9.592
7.405
5.153
2.851
0.511
-1.85
-4.218
-6.579
-8.922
-11.238
-13.525
-15.774
-17.974
-20.116
-22.184
-24.167
-26.058
-27.835
-29.48
-30.966
-32.268
-33.371
-34.272
-34.967
-35.451
-35.707
-35.716
-35.474
-34.981
-34.254
-33.337
-32.275
-31.118
-29.952
-28.847
-27.916
-27.322
-27.096
-27.173
-27.414
-27.584
-27.56
-27.369
-26.897
-25.91
-24.425
-22.615
-20.969
-20.311
-20.986
-22.916
-26.156
-30.835
-36.89
-44.071
-51.412
-57.301
-60.86
-61.781
-59.63
-53.853
-43.702
-28.524
-8.66
14.64
40.648
68.856
98.187
126.814
152.017
170.51
179.433
176.66
159.487
126.107
77.266
14.926
-57.916
-139.77
-233.022
-338.501
-451.843
-561.84
-650.164
-701.638
-709.662
-676.845
-615.828
-539.644
-458.981
-382.879
-314.698
-257.279
-211.541
-174.253
-143.874
-118.006
-95.528
-78.904
-68.676
-64.495
-64.88
-66.054
-65.369
-61.87
-55.413
-46.748
-36.708
-25.796
-14.689
-4.385
4.112
10.265
14.007
15.574
15.408
13.914
11.458
8.559
5.781
3.501
1.933
1.148
1.081
1.678
2.909
4.695
6.938
9.551
12.449
15.566
18.856
22.255
25.689
29.08
32.342
35.398
38.174
40.624
42.725
44.476
45.89
46.987
47.795
48.348
48.693
48.874
48.93
48.9
48.814
48.709
48.625
48.6
48.674
48.874
49.215
49.708
50.36
51.173
52.146
53.276
54.552
55.966
57.512
59.188
60.991
62.918
64.963
67.119
69.38
71.741
74.198
76.746
79.38
82.095
84.886
87.75
90.685
93.684
96.743
99.854
103.012
106.208
109.436
112.688
115.957
119.233
122.51
125.779
129.034
132.267
135.471
138.637
141.757
144.825
147.831
150.767
153.625
156.395
159.068
161.634
164.085
166.41
168.599
170.642
172.53
174.253
175.801
177.166
178.338
179.308
180.068
180.611
180.928
181.014
180.863
180.469
179.829
178.938
177.794
176.396
174.742
172.833
170.669
168.253
165.587
162.676
159.524
156.139
152.527
148.698
144.661
140.428
136.011
131.422
126.676
121.787
116.771
111.644
106.422
101.123
95.765
90.364
84.94
79.509
74.09
68.7
63.357
58.077
52.876
47.771
42.775
37.904
33.171
28.587
24.165
19.916
15.849
11.973
8.295
4.821
1.556
-1.496
-4.332
-6.951
-9.352
-11.537
-13.508
-15.266
-16.817
-18.165
-19.316
-20.275
-21.052
-21.652
-22.085
-22.361
-22.487
-22.473
-22.331
-22.068
-21.696
-21.225
-20.663
-20.022
-19.31
-18.537
-17.713
-16.846
-15.944
-15.015
-14.067
-13.107
-12.141
-11.174
-10.214
-9.263
-8.327
-7.41
-6.515
-5.644
-4.801
-3.988
-3.207
-2.458
-1.743
-1.064
-0.42
0.188
0.759
1.293
1.791
2.252
2.676
3.064
3.415
3.731
4.01
4.254
4.462
4.635
4.773
4.875
4.942
4.972
4.967
4.926
4.847
4.731
4.578
4.386
4.155
3.886
3.578
3.23
2.843
2.418
1.954
1.452
0.914
0.341
-0.266
-0.906
-1.575
-2.272
-2.995
-3.741
-4.507
-5.29
-6.087
-6.896
-7.712
-8.533
-9.356
-10.176
-10.991
-11.797
-12.59
-13.367
-14.126
-14.861
-15.571
-16.252
-16.902
-17.518
-18.098
-18.639
-19.141
-19.601
-20.019
-20.394
-20.726
-21.016
-21.264
-21.471
-21.638
-21.769
-21.864
-21.927
-21.961
-21.968
-21.951
-21.915
-21.862
-21.796
-21.721
-21.641
-21.559
-21.479
-21.404
-21.339
-21.286
-21.249
-21.231
-21.234
-21.261
-21.313
-21.394
-21.504
-21.644
-21.816
-22.018
-22.252
-22.517
-22.811
-23.133
-23.48
-23.851
-24.241
-24.648
-25.066
-25.493
-25.922
-26.349
-26.769
-27.176
-27.565
-27.929
-28.263
-28.561
-28.815
-29.021
-29.172
-29.263
-29.287
-29.239
-29.115
-28.91
-28.62
-28.24
-27.768
-27.199
-26.532
-25.765
-24.895
-23.921
-22.844
-21.664
-20.382
-18.999
-17.519
-15.946
-14.282
-12.533
-10.705
-8.803
-6.834
-4.806
-2.725
-0.601
1.557
3.738
5.933
8.131
10.321
12.49
14.629
16.726
18.769
20.747
22.649
24.464
26.18
27.787
29.274
30.63
31.846
32.911
33.816
34.553
35.115
35.496
35.692
35.698
35.513
35.139
34.573
33.819
32.878
31.754
30.451
28.973
27.326
25.519
23.565
21.476
19.269
16.961
14.566
12.099
9.573
6.998
4.387
1.751
-0.896
-3.537
-6.149
-8.7
-11.158
-13.49
-15.679
-17.712
-19.58
-21.277
-22.794
-24.128
-25.282
-26.244
-27.005
-27.555
-27.886
-28.013
-27.978
-27.845
-27.689
-27.582
-27.566
-27.659
-27.885
-28.272
-28.857
-29.663
-30.692
-31.918
-33.34
-35.009
-36.915
-38.946
-40.886
-42.349
-42.965
-42.609
-41.222
-38.727
-35.221
-30.845
-25.923
-21.29
-17.782
-15.714
-15.163
-16.023
-17.882
-20.463
-23.206
-24.702
-23.529
-18.652
-9.305
4.789
23.778
46.743
70.945
93.236
110.059
121.35
131.315
140.611
147.866
145.939
119.48
61.033
-32.32
-158.324
-299.521
-440.246
-563.932
-651.473
-700.059
-712.32
-695.518
-663.404
-618.224
-559.452
-488.457
-407.86
-331.059
-269.956
-229.311
-207.243
-192.231
-175.525
-154.844
-131.981
-112.734
-99.775
-91.453
-84.849
-76.884
-66.509
-54.336
-41.181
-27.905
-15.077
-3.394
6.16
13.114
17.424
19.297
19.207
17.558
14.689
11.131
7.503
4.249
1.67
-0.102
-1.094
-1.303
-0.73
0.57
2.519
5.016
7.957
11.251
14.82
18.576
22.421
26.242
29.919
33.344
36.415
39.069
41.274
43.014
44.297
45.144
45.58
45.653
45.419
44.933
44.249
43.418
42.485
41.503
40.527
39.612
38.809
38.156
37.676
37.39
37.309
37.44
37.789
38.352
39.12
40.09
41.257
42.62
44.178
45.927
47.86
49.97
52.251
54.696
57.297
60.049
62.943
65.972
69.128
72.404
75.793
79.287
82.875
86.546
90.288
94.089
97.938
101.821
105.726
109.639
113.548
117.44
121.304
125.128
128.899
132.604
136.232
139.771
143.208
146.531
149.728
152.787
155.697
158.446
161.023
163.417
165.62
167.621
169.411
170.982
172.326
173.436
174.305
174.928
175.298
175.411
175.264
174.854
174.178
173.236
172.027
170.551
168.809
166.805
164.539
162.017
159.244
156.224
152.966
149.476
145.765
141.841
137.716
133.401
128.91
124.255
119.45
114.51
109.451
104.287
99.035
93.712
88.333
82.917
77.479
72.036
66.606
61.205
55.849
50.554
45.336
40.209
35.19
30.29
25.525
20.906
16.445
12.155
8.043
4.121
0.397
-3.124
-6.433
-9.527
-12.401
-15.051
-17.477
-19.675
-21.648
-23.394
-24.916
-26.218
-27.301
-28.171
-28.834
-29.294
-29.559
-29.635
-29.532
-29.256
-28.817
-28.225
-27.488
-26.617
-25.623
-24.515
-23.305
-22.004
-20.621
-19.169
-17.657
-16.097
-14.499
-12.874
-11.231
-9.581
-7.933
-6.296
-4.68
-3.092
-1.541
-0.035
1.419
2.815
4.146
5.406
6.59
7.694
8.713
9.644
10.483
11.229
11.878
12.429
12.882
13.237
13.492
13.649
13.708
13.671
13.541
13.319
13.007
12.61
12.13
11.572
10.938
10.234
9.463
8.631
7.742
6.801
5.813
4.784
3.72
2.624
1.503
0.361
-0.796
-1.962
-3.134
-4.307
-5.475
-6.635
-7.783
-8.915
-10.027
-11.117
-12.18
-13.214
-14.217
-15.187
-16.121
-17.019
-17.879
-18.699
-19.481
-20.222
-20.922
-21.582
-22.202
-22.783
-23.324
-23.828
-24.295
-24.727
-25.124
-25.49
-25.824
-26.129
-26.407
-26.658
-26.884
-27.086
-27.265
-27.423
-27.561
-27.678
-27.777
-27.857
-27.918
-27.961
-27.985
-27.991
-27.977
-27.943
-27.887
-27.81
-27.71
-27.586
-27.437
-27.262
-27.058
-26.825
-26.561
-26.264
-25.933
-25.564
-25.157
-24.709
-24.22
-23.689
-23.115
-22.497
-21.835
-21.131
-20.383
-19.593
-18.762
-17.892
-16.985
-16.043
-15.07
-14.071
-13.048
-12.007
-10.953
-9.891
-8.827
-7.768
-6.719
-5.686
-4.677
-3.698
-2.757
-1.862
-1.021
-0.242
0.468
1.1
1.644
2.093
2.439
2.676
2.797
2.797
2.672
2.419
2.035
1.52
0.874
0.095
-0.815
-1.856
-3.026
-4.321
-5.733
-7.255
-8.876
-10.584
-12.367
-14.213
-16.111
-18.052
-20.033
-22.05
-24.096
-26.16
-28.227
-30.273
-32.272
-34.199
-36.036
-37.769
-39.387
-40.886
-42.264
-43.521
-44.664
-45.688
-46.572
-47.296
-47.843
-48.211
-48.427
-48.54
-48.607
-48.682
-48.804
-48.992
-49.267
-49.649
-50.156
-50.804
-51.585
-52.486
-53.538
-54.821
-56.35
-58.035
-59.643
-60.79
-61.106
-60.363
-58.43
-55.188
-50.723
-45.366
-39.69
-34.682
-31.395
-30.51
-32.281
-36.67
-43.171
-50.892
-58.695
-64.739
-66.896
-63.436
-53.274
-36.095
-12.403
16.644
49.395
82.977
113.694
137.805
151.686
152.44
137.905
106.301
57.693
-4.984
-78.075
-157.393
-241.446
-332.339
-428.138
-523.344
-606.365
-660.962
-679.959
-663.175
-617.568
-556.142
-484.997
-407.883
-329.678
-255.288
-193.813
-152.189
-129.898
-119.971
-113.23
-103.835
-91.258
-79.685
-72.408
-68.989
-67.118
-63.837
-57.857
-49.892
-41.041
-32.12
-23.635
-16.186
-10.497
-6.997
-5.702
-6.241
-8.068
-10.751
-13.926
-17.128
-19.878
-21.845
-22.868
-22.949
-22.184
-20.652
-18.418
-15.576
-12.25
-8.56
-4.616
-0.506
3.689
7.864
11.899
15.67
19.086
22.093
24.659
26.776
28.441
29.67
30.496
30.964
31.121
31.014
30.686
30.181
29.546
28.836
28.107
27.413
26.8
26.297
25.928
25.708
25.65
25.76
26.04
26.484
27.091
27.86
28.795
29.898
31.17
32.609
34.213
35.978
37.905
39.991
42.234
44.634
47.188
49.895
52.753
55.761
58.915
62.21
65.64
69.194
72.866
76.646
80.523
84.487
88.524
92.625
96.778
100.969
105.189
109.423
113.659
117.884
122.085
126.249
130.362
134.41
138.38
142.258
146.031
149.684
153.203
156.576
159.79
162.83
165.685
168.342
170.789
173.014
175.008
176.758
178.257
179.496
180.466
181.162
181.578
181.708
181.551
181.103
180.362
179.329
178.003
176.386
174.48
172.289
169.817
167.069
164.052
160.774
157.244
153.47
149.465
145.24
140.808
136.181
131.375
126.405
121.287
116.037
110.672
105.21
99.67
94.069
88.426
82.76
77.088
71.428
65.799
60.217
54.699
49.26
43.917
38.683
33.574
28.602
23.781
19.122
14.636
10.334
6.225
2.316
-1.384
-4.87
-8.136
-11.178
-13.994
-16.582
-18.94
-21.069
-22.97
-24.646
-26.099
-27.334
-28.357
-29.172
-29.788
-30.211
-30.45
-30.513
-30.409
-30.147
-29.736
-29.185
-28.505
-27.706
-26.796
-25.787
-24.688
-23.51
-22.262
-20.955
-19.598
-18.201
-16.773
-15.323
-13.86
-12.392
-10.926
-9.471
-8.033
-6.62
-5.237
-3.889
-2.583
-1.323
-0.111
1.047
2.149
3.192
4.175
5.096
5.953
6.744
7.47
8.129
8.722
9.247
9.707
10.1
10.429
10.695
10.899
11.044
11.131
11.163
11.142
11.071
10.953
10.789
10.584
10.34
10.061
9.75
9.41
9.044
8.655
8.247
7.823
7.385
6.936
6.479
6.016
5.55
5.084
4.619
4.159
3.705
3.259
2.823
2.399
1.987
1.59
1.207
0.839
0.486
0.149
-0.173
-0.481
-0.775
-1.057
-1.327
-1.586
-1.837
-2.081
-2.32
-2.557
-2.792
-3.028
-3.267
-3.512
-3.763
-4.023
-4.293
-4.575
-4.87
-5.179
-5.504
-5.846
-6.204
-6.581
-6.975
-7.387
-7.816
-8.261
-8.721
-9.195
-9.679
-10.173
-10.672
-11.173
-11.674
-12.17
-12.656
-13.129
-13.584
-14.015
-14.418
-14.788
-15.118
-15.405
-15.642
-15.824
-15.948
-16.007
-15.998
-15.916
-15.758
-15.52
-15.2
-14.794
-14.3
-13.717
-13.042
-12.275
-11.415
-10.463
-9.418
-8.283
-7.059
-5.749
-4.357
-2.887
-1.344
0.268
1.941
3.669
5.446
7.264
9.117
10.994
12.889
14.791
16.691
18.581
20.452
22.293
24.095
25.851
27.55
29.185
30.747
32.229
33.621
34.916
36.106
37.183
38.138
38.964
39.654
40.203
40.606
40.859
40.96
40.908
40.704
40.349
39.844
39.191
38.392
37.448
36.363
35.143
33.791
32.314
30.718
29.01
27.202
25.304
23.324
21.268
19.137
16.937
14.678
12.375
10.042
7.695
5.354
3.041
0.793
-1.359
-3.384
-5.259
-6.977
-8.529
-9.9
-11.071
-12.023
-12.749
-13.268
-13.602
-13.767
-13.788
-13.701
-13.563
-13.472
-13.521
-13.787
-14.337
-15.21
-16.443
-18.089
-20.195
-22.785
-25.85
-29.321
-33.12
-37.186
-41.453
-45.842
-50.217
-54.354
-58.03
-61.037
-63.183
-64.334
-64.311
-62.839
-59.754
-55.046
-48.885
-41.725
-34.013
-26.019
-18.115
-10.802
-4.384
1.025
5.771
10.903
17.399
25.901
37.035
51.214
68.299
87.554
107.277
124.679
136.747
140.555
133.101
111.565
74.995
24.837
-36.548
-105.67
-181.854
-268.064
-363.254
-462.602
-554.984
-622.65
-654.742
-648.039
-606.26
-542.373
-467.76
-391.388
-322.824
-266.569
-224.121
-194.043
-169.434
-144.351
-116.648
-87.616
-62.026
-43.282
-31.637
-25.53
-22.338
-20.83
-21.003
-22.505
-24.932
-27.619
-29.946
-31.814
-33.131
-33.375
-32.022
-29.138
-25.247
-21.145
-17.346
-13.906
-10.83
-8.382
-6.992
-6.764
-7.358
-8.112
-8.528
-8.463
-7.917
-6.868
-5.161
-2.705
0.359
3.68
6.927
9.919
12.576
14.893
16.832
18.326
19.37
20.014
20.327
20.373
20.191
19.791
19.189
18.419
17.519
16.545
15.545
14.562
13.641
12.815
12.11
11.549
11.152
10.929
10.887
11.029
11.352
11.86
12.558
13.45
14.539
15.819
17.286
18.935
20.765
22.77
24.949
27.295
29.805
32.473
35.294
38.265
41.38
44.63
48.008
51.503
55.106
58.804
62.588
66.445
70.362
74.328
78.328
82.35
86.382
90.409
94.419
98.398
102.333
106.209
110.014
113.734
117.355
120.865
124.25
127.499
130.597
133.535
136.3
138.883
141.272
143.458
145.432
147.185
148.71
149.998
151.043
151.839
152.38
152.662
152.681
152.434
151.919
151.135
150.081
148.757
147.164
145.305
143.181
140.798
138.16
135.272
132.142
128.778
125.189
121.384
117.376
113.174
108.791
104.241
99.535
94.688
89.713
84.626
79.441
74.174
68.839
63.454
58.033
52.594
47.151
41.721
36.32
30.963
25.665
20.442
15.309
10.28
5.37
0.591
-4.041
-8.517
-12.824
-16.951
-20.89
-24.633
-28.172
-31.502
-34.618
-37.514
-40.19
-42.641
-44.868
-46.87
-48.648
-50.203
-51.539
-52.66
-53.57
-54.274
-54.781
-55.095
-55.226
-55.183
-54.974
-54.61
-54.102
-53.461
-52.7
-51.831
-50.869
-49.827
-48.719
-47.56
-46.362
-45.14
-43.908
-42.677
-41.461
-40.272
-39.12
-38.017
-36.973
-35.996
-35.097
-34.282
-33.558
-32.931
-32.405
-31.984
-31.671
-31.468
-31.374
-31.39
-31.515
-31.746
-32.079
-32.51
-33.032
-33.639
-34.322
-35.071
-35.876
-36.725
-37.606
-38.506
-39.412
-40.309
-41.185
-42.024
-42.812
-43.535
-44.179
-44.729
-45.173
-45.496
-45.687
-45.733
-45.624
-45.35
-44.901
-44.269
-43.447
-42.428
-41.207
-39.779
-38.141
-36.291
-34.229
-31.955
