Name,Enes Ozkan
Date of Birth,"5 Nov 2001"
Recorded Date,2023-01-17 12:09:11 +0000
Classification,Sinus Rhythm
Symptoms,
Software Version,1.90
Device,"Watch6,14"
Sample Rate,512 hertz


Lead,Lead I
Unit,µV

-7.968
9.112
23.135
30.148
33.304
35.285
37.923
44.348
52.233
59.238
64.852
67.693
68.63
68.77
67.982
66.479
64.248
61.162
57.449
53.319
48.891
44.295
39.642
35.019
30.465
26.01
21.673
17.445
13.339
9.368
5.529
1.824
-1.719
-5.083
-8.257
-11.239
-14.078
-16.829
-19.515
-22.155
-24.753
-27.312
-29.84
-32.347
-34.807
-37.185
-39.45
-41.57
-43.532
-45.326
-46.927
-48.298
-49.367
-50.037
-50.211
-49.802
-48.738
-46.968
-44.407
-40.91
-36.429
-31.039
-24.951
-18.556
-12.162
-5.894
0.023
5.192
9.32
12.336
14.602
17.058
20.421
24.723
30.114
37.053
45.573
55.361
64.489
68.935
66.627
57.421
42.05
23.427
0.062
-32.608
-76.782
-136.282
-209.665
-290.493
-374.611
-453.822
-519.905
-568.064
-593.363
-594.626
-574.621
-536.931
-484.891
-423.575
-359.784
-300.892
-255.71
-229.702
-220.391
-221.268
-224.315
-221.549
-212.962
-200.388
-183.128
-163.091
-136.733
-104.019
-72.509
-46.162
-31.653
-30
-33.012
-35.992
-34.128
-26.165
-17.294
-10.236
-6.329
-5.993
-7.061
-8.379
-9.933
-11.543
-13.376
-15.449
-17.448
-19.189
-20.635
-21.749
-22.475
-22.827
-22.837
-22.514
-21.919
-21.091
-20.035
-18.783
-17.357
-15.738
-13.903
-11.845
-9.579
-7.159
-4.63
-2.003
0.701
3.466
6.252
8.997
11.667
14.255
16.761
19.188
21.519
23.711
25.719
27.525
29.125
30.537
31.772
32.833
33.735
34.506
35.197
35.872
36.57
37.31
38.101
38.954
39.888
40.928
42.1
43.41
44.864
46.465
48.216
50.125
52.189
54.394
56.714
59.121
61.597
64.132
66.719
69.351
72.022
74.724
77.452
80.21
82.995
85.803
88.628
91.464
94.305
97.151
100.001
102.856
105.713
108.569
111.418
114.256
117.076
119.869
122.627
125.335
127.985
130.563
133.061
135.467
137.77
139.959
142.022
143.95
145.73
147.353
148.806
150.079
151.161
152.043
152.716
153.17
153.399
153.395
153.151
152.664
151.928
150.94
149.696
148.195
146.435
144.417
142.141
139.61
136.827
133.797
130.526
127.022
123.294
119.351
115.205
110.868
106.354
101.676
96.849
91.89
86.813
81.636
76.377
71.051
65.678
60.273
54.855
49.441
44.047
38.69
33.386
28.149
22.994
17.936
12.989
8.164
3.475
-1.067
-5.451
-9.667
-13.707
-17.563
-21.228
-24.696
-27.964
-31.029
-33.889
-36.543
-38.991
-41.236
-43.279
-45.125
-46.777
-48.242
-49.524
-50.631
-51.571
-52.35
-52.978
-53.462
-53.812
-54.035
-54.141
-54.14
-54.039
-53.849
-53.578
-53.237
-52.833
-52.377
-51.878
-51.344
-50.783
-50.205
-49.616
-49.025
-48.436
-47.858
-47.295
-46.753
-46.237
-45.75
-45.295
-44.876
-44.494
-44.151
-43.848
-43.585
-43.362
-43.18
-43.037
-42.932
-42.864
-42.831
-42.831
-42.863
-42.922
-43.008
-43.115
-43.242
-43.384
-43.537
-43.699
-43.866
-44.033
-44.197
-44.355
-44.502
-44.635
-44.751
-44.848
-44.921
-44.969
-44.989
-44.98
-44.941
-44.869
-44.765
-44.627
-44.456
-44.251
-44.013
-43.743
-43.442
-43.111
-42.752
-42.366
-41.955
-41.523
-41.071
-40.602
-40.118
-39.623
-39.121
-38.617
-38.114
-37.614
-37.118
-36.63
-36.152
-35.688
-35.239
-34.806
-34.391
-33.998
-33.631
-33.293
-32.987
-32.71
-32.462
-32.242
-32.05
-31.89
-31.763
-31.669
-31.611
-31.592
-31.614
-31.67
-31.764
-31.905
-32.098
-32.345
-32.642
-32.966
-33.319
-33.736
-34.188
-34.595
-34.889
-34.99
-34.89
-34.682
-34.381
-33.908
-33.355
-32.973
-32.859
-33.041
-33.493
-33.776
-34.323
-36.635
-40.32
-44.066
-45.382
-39.334
-26.412
-11.799
-0.597
-0.298
-11.689
-27.678
-42.798
-51.589
-52.462
-50.451
-49.827
-51.522
-54.454
-54.929
-47.571
-32.687
-15.609
-1.676
1.668
-6.989
-20.926
-34.395
-41.522
-40.632
-36.526
-32.483
-30.438
-30.872
-31.723
-32.163
-32.429
-32.608
-33.062
-33.789
-34.492
-35.13
-35.753
-36.34
-36.853
-37.253
-37.543
-37.779
-38.026
-38.314
-38.622
-38.928
-39.227
-39.516
-39.794
-40.06
-40.305
-40.524
-40.717
-40.88
-41.012
-41.112
-41.176
-41.199
-41.177
-41.105
-40.981
-40.806
-40.582
-40.311
-39.991
-39.621
-39.202
-38.733
-38.215
-37.648
-37.033
-36.371
-35.661
-34.906
-34.109
-33.271
-32.397
-31.487
-30.544
-29.572
-28.574
-27.554
-26.515
-25.462
-24.399
-23.331
-22.261
-21.194
-20.136
-19.09
-18.061
-17.056
-16.078
-15.134
-14.229
-13.371
-12.565
-11.82
-11.141
-10.536
-10.01
-9.571
-9.222
-8.969
-8.814
-8.76
-8.81
-8.965
-9.228
-9.601
-10.087
-10.688
-11.403
-12.232
-13.173
-14.227
-15.388
-16.652
-18.011
-19.461
-20.999
-22.626
-24.341
-26.133
-27.994
-29.908
-31.859
-33.832
-35.804
-37.747
-39.632
-41.435
-43.135
-44.729
-46.211
-47.571
-48.793
-49.856
-50.747
-51.474
-52.052
-52.49
-52.809
-53.026
-53.179
-53.341
-53.578
-53.947
-54.496
-55.241
-56.201
-57.407
-58.892
-60.687
-62.807
-65.22
-67.87
-70.717
-73.71
-76.796
-79.908
-82.897
-85.607
-87.885
-89.581
-90.581
-90.779
-90.011
-88.064
-84.809
-80.254
-74.591
-68.213
-61.497
-54.71
-48.154
-42.263
-37.341
-33.332
-29.768
-25.653
-19.922
-11.996
-1.492
11.977
28.273
46.46
64.801
80.523
90.538
92.481
84.252
63.796
30.001
-17.043
-75.926
-143.562
-216.055
-289.766
-360.705
-424.368
-476.793
-514.814
-536.546
-541.905
-531.806
-507.546
-471.452
-426.961
-377.812
-327.948
-280.715
-238.161
-201.735
-172.371
-150.043
-133.875
-122.437
-113.664
-105.607
-97.109
-87.297
-75.718
-62.464
-47.879
-32.614
-17.722
-4.243
7.205
16.235
22.773
27.018
29.2
29.677
28.949
27.567
25.978
24.51
23.381
22.717
22.616
23.145
24.323
26.109
28.455
31.323
34.655
38.399
42.492
46.842
51.365
55.981
60.589
65.092
69.399
73.408
77.056
80.306
83.13
85.523
87.5
89.075
90.282
91.167
91.769
92.129
92.288
92.28
92.146
91.932
91.681
91.437
91.235
91.099
91.048
91.097
91.252
91.519
91.899
92.384
92.974
93.668
94.466
95.371
96.384
97.503
98.726
100.051
101.476
103
104.621
106.337
108.147
110.049
112.043
114.128
116.302
118.561
120.901
123.316
125.8
128.348
130.953
133.608
136.306
139.04
141.803
144.588
147.389
150.198
153.009
155.812
158.602
161.37
164.109
166.811
169.469
172.073
174.617
177.092
179.491
181.806
184.03
186.155
188.174
190.081
191.867
193.528
195.056
196.445
197.69
198.785
199.725
200.506
201.124
201.574
201.853
201.958
201.887
201.637
201.206
200.593
199.798
198.819
197.658
196.314
194.789
193.085
191.205
189.15
186.926
184.535
181.982
179.272
176.411
173.404
170.258
166.98
163.577
160.056
156.425
152.693
148.868
144.96
140.976
136.927
132.822
128.671
124.482
120.267
116.034
111.793
107.554
103.326
99.119
94.942
90.804
86.713
82.68
78.712
74.818
71.005
67.282
63.655
60.132
56.72
53.423
50.249
47.202
44.287
41.508
38.87
36.376
34.027
31.827
29.777
27.878
26.131
24.535
23.089
21.794
20.646
19.645
18.788
18.072
17.494
17.051
16.739
16.554
16.491
16.544
16.71
16.982
17.355
17.822
18.377
19.014
19.727
20.507
21.349
22.246
23.191
24.177
25.196
26.243
27.31
28.391
29.479
30.57
31.656
32.733
33.796
34.84
35.859
36.85
37.809
38.732
39.614
40.453
41.246
41.989
42.68
43.318
43.901
44.426
44.894
45.303
45.654
45.946
46.18
46.356
46.476
46.541
46.553
46.515
46.429
46.298
46.125
45.913
45.664
45.383
45.073
44.736
44.375
43.994
43.597
43.185
42.762
42.332
41.897
41.462
41.028
40.599
40.177
39.766
39.367
38.984
38.618
38.271
37.945
37.641
37.361
37.105
36.873
36.666
36.482
36.322
36.183
36.063
35.962
35.876
35.804
35.743
35.691
35.645
35.603
35.563
35.521
35.477
35.426
35.366
35.295
35.21
35.109
34.99
34.85
34.687
34.5
34.286
34.043
33.771
33.468
33.133
32.765
32.364
31.931
31.466
30.97
30.446
29.896
29.322
28.728
28.116
27.49
26.854
26.212
25.567
24.923
24.285
23.656
23.04
22.442
21.865
21.313
20.789
20.298
19.842
19.425
19.049
18.716
18.431
18.194
18.008
17.875
17.796
17.772
17.803
17.891
18.033
18.228
18.476
18.772
19.116
19.503
19.93
20.392
20.887
21.408
21.951
22.512
23.085
23.664
24.245
24.823
25.392
25.948
26.485
27.001
27.489
27.947
28.371
28.757
29.102
29.402
29.656
29.86
30.014
30.115
30.162
30.155
30.094
29.979
29.812
29.595
29.33
29.018
28.664
28.27
27.841
27.382
26.897
26.392
25.871
25.341
24.807
24.276
23.751
23.24
22.745
22.274
21.829
21.417
21.039
20.701
20.407
20.159
19.96
19.814
19.721
19.682
19.7
19.773
19.902
20.085
20.322
20.611
20.949
21.334
21.762
22.23
22.731
23.261
23.814
24.382
24.958
25.534
26.102
26.655
27.185
27.683
28.143
28.555
28.913
29.208
29.433
29.581
29.641
29.607
29.472
29.23
28.875
28.405
27.816
27.105
26.274
25.324
24.256
23.069
21.763
20.338
18.799
17.151
15.4
13.553
11.618
9.606
7.53
5.403
3.234
1.031
-1.209
-3.48
-5.775
-8.081
-10.383
-12.664
-14.912
-17.103
-19.211
-21.213
-23.088
-24.827
-26.429
-27.884
-29.183
-30.316
-31.264
-32.02
-32.587
-32.971
-33.195
-33.291
-33.297
-33.264
-33.245
-33.288
-33.461
-33.82
-34.427
-35.355
-36.616
-38.228
-40.25
-42.648
-45.352
-48.234
-50.958
-53.194
-54.816
-55.689
-55.735
-55.117
-53.912
-52.345
-51.107
-50.838
-51.865
-54.368
-58.072
-62.233
-66.356
-69.817
-71.4
-69.798
-63.822
-52.578
-36.03
-15.044
9.594
37.049
65.782
93.576
117.647
135.024
143.302
141.237
127.732
101.458
61.819
9.378
-53.997
-125.145
-200.454
-277.133
-352.182
-421.422
-480.652
-526.433
-556.3
-570.446
-571.102
-558.088
-531.051
-489.912
-432.684
-363.889
-292.699
-227.213
-177.855
-147.494
-129.768
-118.978
-108.045
-93.994
-80.826
-70.648
-63.975
-59.965
-55.478
-49.032
-40.921
-31.871
-22.841
-14.576
-7.772
-2.972
-0.485
-0.352
-2.207
-5.54
-9.925
-14.846
-19.696
-24.028
-27.525
-30.015
-31.519
-32.079
-31.717
-30.515
-28.58
-26.021
-22.949
-19.467
-15.652
-11.597
-7.43
-3.281
0.713
4.433
7.799
10.765
13.3
15.394
17.051
18.29
19.143
19.654
19.863
19.813
19.542
19.091
18.51
17.849
17.161
16.495
15.883
15.348
14.905
14.563
14.327
14.198
14.172
14.241
14.401
14.65
14.99
15.421
15.942
16.552
17.247
18.027
18.889
19.837
20.869
21.986
23.191
24.485
25.87
27.347
28.917
30.579
32.33
34.168
36.089
38.088
40.163
42.307
44.517
46.786
49.11
51.485
53.905
56.364
58.857
61.378
63.923
66.482
69.048
71.613
74.166
76.702
79.215
81.692
84.12
86.497
88.824
91.096
93.313
95.458
97.504
99.456
101.318
103.05
104.616
105.99
107.134
108.064
108.826
109.384
109.682
109.847
110.03
110.132
110.157
110.132
109.714
109.812
111.308
112.937
114.312
113.11
106.547
97.706
88.642
82.417
83.233
87.381
91.717
94.091
90.942
84.829
78.345
72.073
67.598
64.015
60.161
56.268
52.2
48.045
44.053
40.081
36.014
31.907
27.78
23.631
19.475
15.334
11.224
7.179
3.239
-0.596
-4.325
-7.935
-11.416
-14.759
-17.952
-20.99
-23.871
-26.586
-29.128
-31.493
-33.678
-35.681
-37.5
-39.135
-40.586
-41.856
-42.947
-43.861
-44.603
-45.176
-45.587
-45.841
-45.945
-45.907
-45.733
-45.434
-45.016
-44.491
-43.867
-43.153
-42.361
-41.5
-40.58
-39.612
-38.605
-37.569
-36.514
-35.45
-34.384
-33.327
-32.284
-31.265
-30.274
-29.319
-28.404
-27.534
-26.713
-25.945
-25.233
-24.579
-23.986
-23.453
-22.982
-22.572
-22.223
-21.934
-21.702
-21.527
-21.405
-21.333
-21.308
-21.327
-21.387
-21.483
-21.611
-21.767
-21.946
-22.144
-22.356
-22.579
-22.807
-23.038
-23.267
-23.491
-23.707
-23.912
-24.104
-24.28
-24.437
-24.575
-24.691
-24.784
-24.853
-24.896
-24.915
-24.908
-24.877
-24.822
-24.743
-24.643
-24.522
-24.381
-24.223
-24.049
-23.86
-23.66
-23.449
-23.232
-23.01
-22.786
-22.563
-22.343
-22.129
-21.923
-21.728
-21.545
-21.376
-21.225
-21.092
-20.98
-20.892
-20.828
-20.791
-20.783
-20.805
-20.858
-20.943
-21.061
-21.213
-21.398
-21.617
-21.87
-22.157
-22.477
-22.83
-23.216
-23.633
-24.081
-24.558
-25.063
-25.594
-26.149
-26.726
-27.323
-27.937
-28.568
-29.211
-29.866
-30.529
-31.198
-31.87
-32.543
-33.212
-33.876
-34.53
-35.173
-35.801
-36.412
-37.003
-37.573
-38.118
-38.637
-39.128
-39.59
-40.02
-40.418
-40.782
-41.111
-41.405
-41.662
-41.883
-42.068
-42.216
-42.326
-42.402
-42.445
-42.457
-42.44
-42.395
-42.32
-42.222
-42.108
-41.971
-41.808
-41.615
-41.387
-41.135
-40.877
-40.603
-40.302
-40.007
-39.742
-39.527
-39.391
-39.312
-39.246
-39.219
-39.279
-39.303
-39.15
-38.905
-38.56
-38.088
-37.796
-36.851
-34.444
-31.729
-29.055
-28.544
-32.736
-38.816
-44.905
-48.208
-44.887
-38.331
-31.415
-26.105
-25.657
-27.739
-29.988
-31.878
-31.969
-31.095
-30.33
-29.467
-28.645
-27.793
-26.693
-25.491
-24.302
-23.09
-21.85
-20.599
-19.337
-18.059
-16.765
-15.438
-14.059
-12.641
-11.2
-9.737
-8.26
-6.774
-5.284
-3.8
-2.334
-0.891
0.522
1.897
3.225
4.498
5.707
6.845
7.903
8.875
9.754
10.531
11.202
11.76
12.201
12.52
12.711
12.773
12.703
12.5
12.161
11.688
11.078
10.333
9.455
8.446
7.309
6.049
4.67
3.18
1.588
-0.096
-1.863
-3.701
-5.603
-7.558
-9.551
-11.571
-13.608
-15.652
-17.696
-19.726
-21.722
-23.668
-25.55
-27.356
-29.078
-30.703
-32.213
-33.593
-34.833
-35.922
-36.858
-37.628
-38.217
-38.614
-38.809
-38.809
-38.647
-38.347
-37.931
-37.427
-36.861
-36.269
-35.709
-35.225
-34.844
-34.596
-34.502
-34.586
-34.867
-35.353
-36.036
-36.89
-37.863
-38.891
-39.898
-40.785
-41.445
-41.757
-41.587
-40.786
-39.171
-36.63
-33.191
-29.01
-24.41
-19.723
-15.183
-11.102
-7.943
-5.947
-4.958
-4.443
-3.394
-0.831
3.763
10.833
20.913
33.932
48.862
63.884
76.394
83.519
82.831
72.001
48.508
11.705
-36.519
-93.638
-157.238
-227.257
-305.289
-389.367
-471.83
-539.797
-580.918
-589.845
-569.76
-531.429
-486.1
-440.747
-398.221
-357.088
-315.877
-275.145
-236.903
-204.52
-179.422
-160.659
-146.224
-133.104
-120.348
-109.396
-99.487
-88.602
-73.985
-50.822
-20.5
10.336
35.674
47.944
46.693
38.888
29.981
25.921
28.071
31.938
34.843
34.898
31.684
27.422
23.212
19.192
15.564
12.078
8.707
5.761
3.346
1.446
0.079
-0.753
-1.08
-0.927
-0.33
0.659
2.038
3.827
6.012
8.557
11.414
14.524
17.855
21.386
25.095
28.963
32.958
37.043
41.18
45.31
49.378
53.329
57.091
60.613
63.864
66.819
69.474
71.838
73.915
75.714
77.254
78.545
79.612
80.488
81.209
81.831
82.404
82.97
83.576
84.256
85.035
85.934
86.964
88.12
89.404
90.814
92.341
93.984
95.736
97.585
99.517
101.51
103.549
105.622
107.718
109.832
111.958
114.093
116.24
118.403
120.588
122.796
125.029
127.288
129.57
131.877
134.209
136.564
138.94
141.334
143.739
146.149
148.559
150.959
153.341
155.693
158.006
160.269
162.472
164.607
166.662
168.629
170.497
172.257
173.899
175.414
176.792
178.023
179.099
180.011
180.75
181.308
181.68
181.857
181.835
181.609
181.175
180.531
179.675
178.607
177.328
175.839
174.143
172.245
170.148
167.858
165.382
162.727
159.902
156.915
153.776
150.496
147.084
143.554
139.915
136.179
132.36
128.469
124.518
120.521
116.489
112.437
108.377
104.322
100.284
96.275
92.307
88.391
84.538
80.757
77.059
73.451
69.942
66.539
63.249
60.078
57.031
54.113
51.327
48.677
46.164
43.791
41.557
39.465
37.514
35.702
34.031
32.497
31.099
29.836
28.704
27.7
26.821
26.063
25.421
24.891
24.469
24.15
23.928
23.8
23.759
23.801
23.92
24.112
24.371
24.692
25.071
25.503
25.983
26.507
27.072
27.672
28.304
28.964
29.649
30.355
31.078
31.814
32.561
33.315
34.072
34.83
35.585
36.335
37.078
37.81
38.529
39.234
39.921
40.589
41.236
41.861
42.461
43.036
43.584
44.103
44.593
45.052
45.479
45.874
46.233
46.558
46.846
47.096
47.309
47.483
47.619
47.716
47.774
47.794
47.777
47.723
47.633
47.509
47.351
47.162
46.941
46.692
46.416
46.114
45.789
45.442
45.076
44.693
44.294
43.882
43.458
43.025
42.585
42.14
41.692
41.245
40.799
40.359
39.925
39.501
39.087
38.686
38.298
37.926
37.57
37.23
36.906
36.6
36.31
36.036
35.778
35.535
35.305
35.088
34.881
34.683
34.493
34.309
34.129
33.952
33.774
33.596
33.414
33.226
33.032
32.827
32.611
32.38
32.133
31.866
31.577
31.265
30.928
30.562
30.168
29.743
29.287
28.799
28.277
27.722
27.133
26.511
25.855
25.166
24.446
23.694
22.912
22.101
21.261
20.394
19.501
18.583
17.64
16.674
15.686
14.676
13.647
12.598
11.533
10.451
9.355
8.247
7.127
5.998
4.861
3.718
2.57
1.418
0.265
-0.889
-2.042
-3.193
-4.341
-5.484
-6.621
-7.751
-8.873
-9.985
-11.086
-12.174
-13.248
-14.306
-15.345
-16.364
-17.359
-18.329
-19.269
-20.178
-21.052
-21.889
-22.686
-23.441
-24.149
-24.809
-25.418
-25.973
-26.471
-26.909
-27.286
-27.598
-27.843
-28.02
-28.127
-28.162
-28.123
-28.01
-27.821
-27.557
-27.216
-26.799
-26.307
-25.739
-25.099
-24.387
-23.606
-22.76
-21.852
-20.885
-19.866
-18.797
-17.685
-16.535
-15.351
-14.141
-12.91
-11.666
-10.416
-9.166
-7.926
-6.703
-5.505
-4.339
-3.216
-2.141
-1.123
-0.171
0.709
1.509
2.222
2.84
3.356
3.765
4.061
4.239
4.292
4.216
4.008
3.666
3.186
2.571
1.818
0.929
-0.094
-1.247
-2.525
-3.926
-5.445
-7.079
-8.82
-10.658
-12.582
-14.578
-16.633
-18.736
-20.875
-23.034
-25.199
-27.36
-29.513
-31.659
-33.794
-35.902
-37.964
-39.956
-41.862
-43.676
-45.39
-46.991
-48.468
-49.81
-51.015
-52.094
-53.05
-53.874
-54.539
-55.009
-55.267
-55.328
-55.233
-55.03
-54.75
-54.408
-54.009
-53.587
-53.194
-52.876
-52.679
-52.619
-52.668
-52.847
-53.251
-53.915
-54.81
-55.779
-56.429
-56.4
-55.586
-53.94
-51.484
-48.434
-44.916
-41.269
-38.411
-37.228
-38.195
-41.502
-46.686
-52.774
-59.238
-65.345
-69.541
-70.297
-66.206
-56.202
-40.728
-21.18
1.85
27.505
53.613
77.94
96.936
105.773
103.037
89.15
64.501
33.81
-0.487
-40.992
-89.241
-152.298
-236.138
-334.424
-438.075
-531.298
-594.126
-620.499
-608.747
-562.106
-496.316
-422.542
-352.434
-299.907
-265.826
-247.636
-239.705
-230.393
-215.462
-195.281
-172.148
-152.459
-139.074
-131.324
-127.435
-123.772
-118.441
-111.574
-103.502
-94.893
-86.106
-77.07
-68.188
-60.357
-54.108
-49.627
-46.905
-45.626
-45.536
-46.508
-48.209
-50.156
-52.002
-53.502
-54.511
-55.043
-55.094
-54.632
-53.69
-52.329
-50.614
-48.6
-46.317
-43.822
-41.183
-38.471
-35.776
-33.153
-30.626
-28.292
-26.271
-24.487
-22.821
-21.374
-20.13
-19.05
-18.435
-17.413
-15.131
-12.734
-10.549
-10.706
-15.763
-22.831
-29.976
-34.327
-31.954
-26.276
-20.199
-15.709
-16.106
-19.022
-22.056
-24.678
-25.434
-25.173
-24.987
-24.667
-24.349
-23.958
-23.275
-22.443
-21.581
-20.65
-19.641
-18.566
-17.422
-16.201
-14.896
-13.485
-11.94
-10.271
-8.489
-6.591
-4.579
-2.458
-0.226
2.109
4.54
7.063
9.676
12.374
15.153
18.006
20.926
23.908
26.944
30.024
33.142
36.286
39.448
42.615
45.776
48.921
52.037
55.111
58.132
61.087
63.963
66.748
69.429
71.995
74.434
76.734
78.884
80.876
82.699
84.344
85.804
87.071
88.139
89.002
89.655
90.094
90.315
90.317
90.098
89.659
89.001
88.126
87.038
85.743
84.245
82.553
80.675
78.619
76.396
74.017
71.493
68.835
66.058
63.173
60.194
57.135
54.009
50.83
47.611
44.366
41.108
37.85
34.604
31.383
28.198
25.061
21.983
18.975
16.045
13.203
10.457
7.815
5.283
2.867
0.571
-1.601
-3.646
-5.563
-7.35
-9.007
-10.535
-11.934
-13.204
-14.35
-15.375
-16.282
-17.079
-17.768
-18.349
-18.828
-19.217
-19.508
-19.701
-19.797
-19.788
-19.682
-19.511
-19.273
-18.963
-18.629
-18.292
-17.961
-17.683
-17.451
-17.187
-16.899
-16.624
-16.203
-15.503
-14.669
-13.666
-12.421
-11.397
-9.825
-6.726
-3.385
-0.221
0.738
-4.152
-12.61
-21.394
-27.07
-23.261
-11.129
3.309
15.973
20.422
15.319
6.692
-1.968
-7.048
-6.164
-2.889
0.625
3.756
5.168
5.999
7.188
8.322
9.557
10.909
12.062
12.867
13.377
13.649
13.659
13.754
13.362
10.62
5.873
0.81
-1.855
3.118
15.556
30.167
41.738
42.853
32.85
18.783
6.119
0.697
3.688
9.833
15.853
19.567
20.249
20.04
19.946
19.888
19.946
19.803
19.37
18.938
18.602
18.311
18.074
17.908
17.802
17.744
17.71
17.651
17.552
17.438
17.317
17.187
17.052
16.909
16.762
16.618
16.479
16.345
16.213
16.084
15.959
15.839
15.726
15.62
15.521
15.43
15.348
15.274
15.209
15.152
15.103
15.061
15.025
14.995
14.97
14.95
14.934
14.92
14.909
14.899
14.889
14.878
14.863
14.841
14.811
14.77
14.719
14.656
14.579
14.487
14.375
14.246
14.101
13.932
13.731
13.491
13.203
12.874
12.519
12.126
11.683
11.222
10.765
10.332
9.951
9.602
9.242
8.897
8.616
8.28
7.753
7.121
6.379
5.505
4.804
3.464
0.693
-2.368
-5.372
-6.23
-2.44
3.237
8.963
11.997
8.574
2.031
-4.804
-9.994
-10.338
-8.12
-5.658
-3.468
-2.962
-3.319
-3.486
-3.665
-3.721
-3.726
-3.895
-4.09
-4.199
-4.262
-4.287
-4.264
-4.198
-4.099
-3.974
-3.845
-3.738
-3.645
-3.559
-3.485
-3.422
-3.373
-3.339
-3.318
-3.307
-3.307
-3.319
-3.341
-3.372
-3.409
-3.449
-3.488
-3.522
-3.548
-3.559
-3.552
-3.522
-3.462
-3.369
-3.238
-3.062
-2.838
-2.56
-2.222
-1.821
-1.353
-0.813
-0.197
0.496
1.269
2.122
3.056
4.071
5.165
6.336
7.581
8.897
10.28
11.725
13.226
14.778
16.372
18
19.653
21.322
22.997
24.668
26.324
27.953
29.545
31.09
32.575
33.99
35.322
36.56
37.694
38.711
39.602
40.357
40.963
41.414
41.702
41.821
41.766
41.535
41.126
40.539
39.778
38.843
37.739
36.47
35.039
33.453
31.718
29.842
27.835
25.708
23.477
21.156
18.761
16.306
13.802
11.258
8.686
6.098
3.507
0.929
-1.617
-4.107
-6.506
-8.776
-10.886
-12.818
-14.562
-16.11
-17.456
-18.586
-19.494
-20.178
-20.643
-20.891
-20.921
-20.734
-20.349
-19.821
-19.235
-18.683
-18.242
-17.943
-17.802
-17.847
-18.135
-18.726
-19.649
-20.874
-22.332
-24.008
-25.957
-28.194
-30.585
-32.799
-34.44
-35.241
-35.19
-34.374
-32.687
-29.986
-26.362
-22.295
-18.569
-15.816
-14.072
-12.906
-12.162
-11.891
-11.925
-11.611
-9.599
-4.476
4.338
16.584
32.06
50.759
72.39
95.913
118.933
138.398
151.779
157.087
152.355
135.477
104.522
59.543
3.304
-60.943
-130.518
-205.121
-285.463
-368.292
-445.903
-507.204
-542.667
-548.922
-528.364
-486.91
-429.224
-359.118
-282.806
-209.637
-150.749
-113.919
-98.391
-95.154
-94.044
-88.905
-79.316
-70.12
-64.684
-62.464
-61.313
-58.135
-51.494
-42.094
-31.026
-19.37
-8.091
1.884
9.936
15.789
19.447
21.284
21.688
20.936
19.432
17.667
15.989
14.634
13.731
13.264
13.239
13.686
14.577
15.856
17.47
19.36
21.482
23.809
26.297
28.893
31.538
34.174
36.747
39.203
41.488
43.544
45.327
46.811
47.99
48.872
49.47
49.804
49.902
49.798
49.526
49.117
48.6
47.999
47.339
46.648
45.955
45.291
44.681
44.144
43.689
43.326
43.06
42.894
42.826
42.852
42.967
43.169
43.458
43.837
44.306
44.865
45.512
46.246
47.064
47.968
48.955
50.025
51.176
52.409
53.723
55.119
56.598
58.157
59.796
61.512
63.303
65.165
67.095
69.09
71.145
73.257
75.42
77.631
79.887
82.18
84.507
86.862
89.239
91.631
94.032
96.434
98.83
101.211
103.569
105.895
108.181
110.417
112.595
114.705
116.739
118.687
120.541
122.291
123.928
125.443
126.828
128.075
129.176
130.123
130.91
131.531
131.98
132.252
132.344
132.251
131.97
131.5
130.838
129.985
128.941
127.707
126.285
124.679
122.893
120.931
118.8
116.506
114.055
111.456
108.717
105.846
102.853
99.747
96.538
93.237
89.855
86.402
82.889
79.328
75.73
72.105
68.463
64.817
61.175
57.549
53.946
50.377
46.851
43.376
39.96
36.611
33.336
30.142
27.035
24.02
21.102
18.286
15.575
12.974
10.485
8.11
5.853
3.713
1.694
-0.205
-1.982
-3.638
-5.173
-6.588
-7.885
-9.063
-10.126
-11.075
-11.912
-12.639
-13.26
-13.775
-14.189
-14.504
-14.724
-14.852
-14.893
-14.849
-14.726
-14.528
-14.259
-13.923
-13.526
-13.073
-12.568
-12.016
-11.423
-10.794
-10.135
-9.45
-8.747
-8.029
-7.303
-6.573
-5.845
-5.123
-4.413
-3.719
-3.045
-2.395
-1.774
-1.184
-0.63
-0.114
0.36
0.791
1.177
1.515
1.806
2.048
2.241
2.385
2.481
2.53
2.533
2.491
2.407
2.283
2.122
1.926
1.699
1.445
1.167
0.868
0.554
0.226
-0.11
-0.451
-0.794
-1.136
-1.473
-1.802
-2.121
-2.427
-2.718
-2.992
-3.247
-3.484
-3.7
-3.895
-4.071
-4.227
-4.365
-4.485
-4.59
-4.68
-4.76
-4.83
-4.893
-4.953
-5.013
-5.077
-5.147
-5.229
-5.325
-5.439
-5.575
-5.737
-5.929
-6.152
-6.412
-6.71
-7.049
-7.431
-7.859
-8.334
-8.857
-9.43
-10.052
-10.723
-11.443
-12.211
-13.025
-13.885
-14.787
-15.729
-16.708
-17.722
-18.767
-19.839
-20.935
-22.05
-23.181
-24.322
-25.47
-26.619
-27.766
-28.906
-30.033
-31.145
-32.236
-33.302
-34.339
-35.343
-36.312
-37.24
-38.127
-38.968
-39.761
-40.505
-41.198
-41.838
-42.425
-42.959
-43.439
-43.866
-44.241
-44.564
-44.837
-45.062
-45.241
-45.376
-45.469
-45.523
-45.54
-45.525
-45.479
-45.406
-45.309
-45.192
-45.058
-44.91
-44.752
-44.588
-44.42
-44.253
-44.09
-43.932
-43.785
-43.649
-43.528
-43.425
-43.341
-43.278
-43.237
-43.221
-43.231
-43.266
-43.327
-43.415
-43.529
-43.668
-43.832
-44.02
-44.23
-44.462
-44.714
-44.984
-45.272
-45.573
-45.888
-46.213
-46.545
-46.883
-47.222
-47.562
-47.897
-48.227
-48.546
-48.854
-49.145
-49.418
-49.67
-49.896
-50.095
-50.263
-50.397
-50.495
-50.556
-50.576
-50.554
-50.49
-50.381
-50.227
-50.027
-49.782
-49.49
-49.152
-48.767
-48.337
-47.86
-47.339
-46.775
-46.168
-45.521
-44.834
-44.111
-43.353
-42.563
-41.744
-40.897
-40.026
-39.134
-38.224
-37.3
-36.366
-35.424
-34.478
-33.533
-32.591
-31.655
-30.729
-29.815
-28.914
-28.029
-27.16
-26.311
-25.48
-24.669
-23.879
-23.108
-22.358
-21.628
-20.917
-20.223
-19.546
-18.882
-18.232
-17.592
-16.96
-16.333
-15.71
-15.087
-14.461
-13.83
-13.19
-12.536
-11.867
-11.178
-10.466
-9.728
-8.96
-8.161
-7.327
-6.459
-5.554
-4.614
-3.638
-2.627
-1.585
-0.512
0.588
1.711
2.853
4.009
5.175
6.343
7.507
8.66
9.797
10.908
11.986
13.024
14.015
14.95
15.821
16.621
17.34
17.972
18.51
18.947
19.275
19.489
19.582
19.553
19.398
19.116
18.706
18.166
17.5
16.711
15.804
14.785
13.658
12.428
11.103
9.693
8.209
6.662
5.056
3.397
1.693
-0.037
-1.775
-3.501
-5.204
-6.871
-8.483
-10.014
-11.436
-12.727
-13.874
-14.873
-15.714
-16.38
-16.848
-17.099
-17.136
-16.985
-16.678
-16.243
-15.703
-15.088
-14.449
-13.854
-13.367
-13.035
-12.869
-12.867
-13.025
-13.352
-13.863
-14.559
-15.413
-16.346
-17.262
-18.074
-18.685
-18.964
-18.761
-17.855
-15.986
-13.075
-9.139
-4.315
1.03
6.581
12.122
17.229
21.455
24.808
27.367
29.576
32.786
37.944
45.523
56.551
70.571
86.067
103.012
119.773
135.122
148.527
154.498
148.027
124.992
82.921
26.806
-38.846
-111.76
-190.201
-274.546
-358.823
-429.781
-475.489
-488.339
-470.764
-435.352
-392.844
-350.215
-308.474
-263.405
-216.607
-171.553
-133.66
-109.627
-97.253
-92.671
-91.77
-88.614
-83.24
-76.549
-67.993
-58.484
-47.279
-33.771
-19.079
-4.343
9.163
20.447
29.144
35.178
38.65
39.792
39.014
36.9
34.032
30.844
27.66
24.692
22.088
19.994
18.49
17.592
17.286
17.554
18.382
19.755
21.638
23.959
26.635
29.573
32.683
35.871
39.03
42.05
44.824
47.271
49.345
51.016
52.267
53.096
53.513
53.542
53.225
52.604
51.72
50.616
49.331
47.911
46.407
44.868
43.344
41.873
40.484
39.2
38.039
37.015
36.139
35.414
34.841
34.422
34.16
34.06
34.128
34.365
34.772
35.348
36.092
37.004
38.082
39.324
40.728
42.292
44.012
45.885
47.907
50.073
52.374
54.803
57.349
60.002
62.751
65.584
68.489
71.454
74.467
77.516
80.586
83.667
86.743
89.802
92.829
95.813
98.739
101.595
104.368
107.047
109.621
112.078
114.408
116.603
118.654
120.553
122.293
123.867
125.272
126.501
127.551
128.419
129.103
129.6
129.91
130.03
129.962
129.705
129.259
128.626
127.807
126.806
125.624
124.266
122.737
121.042
119.186
117.175
115.017
112.717
110.284
107.725
105.046
102.257
99.364
96.376
93.301
90.147
86.922
83.633
80.289
76.897
73.464
69.999
66.509
63.003
59.487
55.971
52.463
48.971
45.505
42.072
38.681
35.339
32.053
28.831
25.679
22.602
19.606
16.696
13.877
11.152
8.525
5.999
3.578
1.262
-0.945
-3.042
-5.029
-6.904
-8.667
-10.318
-11.857
-13.283
-14.597
-15.8
-16.894
-17.88
-18.762
-19.543
-20.227
-20.818
-21.321
-21.742
-22.085
-22.356
-22.56
-22.703
-22.79
-22.825
-22.814
-22.763
-22.674
-22.555
-22.407
-22.237
-22.046
-21.839
-21.618
-21.387
-21.148
-20.903
-20.655
-20.407
-20.16
-19.917
-19.68
-19.451
-19.231
-19.02
-18.82
-18.63
-18.45
-18.279
-18.116
-17.961
-17.812
-17.667
-17.526
-17.387
-17.25
-17.112
-16.972
-16.83
-16.685
-16.535
-16.379
-16.217
-16.05
-15.877
-15.698
-15.513
-15.323
-15.129
-14.93
-14.726
-14.517
-14.304
-14.085
-13.862
-13.634
-13.401
-13.164
-12.923
-12.679
-12.433
-12.184
-11.934
-11.683
-11.431
-11.178
-10.924
-10.67
-10.415
-10.159
-9.903
-9.646
-9.388
-9.129
-8.868
-8.605
-8.338
-8.068
-7.793
-7.513
-7.228
-6.938
-6.644
-6.345
-6.043
-5.738
-5.433
-5.128
-4.823
-4.522
-4.224
-3.932
-3.647
-3.371
-3.107
-2.857
-2.623
-2.408
-2.214
-2.045
-1.902
-1.788
-1.706
-1.657
-1.645
-1.67
-1.737
-1.846
-1.999
-2.198
-2.445
-2.739
-3.08
-3.468
-3.903
-4.382
-4.903
-5.464
-6.063
-6.696
-7.36
-8.051
-8.766
-9.5
-10.249
-11.007
-11.769
-12.531
-13.287
-14.031
-14.759
-15.464
-16.143
-16.79
-17.401
-17.971
-18.496
-18.972
-19.394
-19.76
-20.067
-20.312
-20.493
-20.61
-20.663
-20.651
-20.577
-20.443
-20.25
-20.001
-19.702
-19.355
-18.965
-18.538
-18.079
-17.593
-17.088
-16.569
-16.044
-15.518
-14.999
-14.494
-14.007
-13.545
-13.115
-12.72
-12.367
-12.059
-11.802
-11.599
-11.454
-11.371
-11.351
-11.396
-11.508
-11.687
-11.932
-12.243
-12.618
-13.053
-13.546
-14.093
-14.689
-15.33
-16.009
-16.72
-17.457
-18.211
-18.977
-19.745
-20.508
-21.257
-21.987
-22.689
-23.356
-23.983
-24.562
-25.089
-25.558
-25.965
-26.304
-26.573
-26.767
-26.884
-26.921
-26.875
-26.745
-26.53
-26.228
-25.841
-25.368
-24.809
-24.167
-23.443
-22.64
-21.761
-20.809
-19.79
-18.708
-17.569
-16.379
-15.144
-13.871
-12.566
-11.235
-9.884
-8.518
-7.143
-5.763
-4.382
-3.005
-1.635
-0.277
1.067
2.393
3.698
4.979
6.231
7.451
8.634
9.776
10.873
11.922
12.917
13.856
14.733
15.548
16.298
16.981
17.594
18.134
18.601
18.992
19.306
19.541
19.694
19.762
19.745
19.642
19.451
19.168
18.789
18.307
17.719
17.027
16.234
15.346
14.372
13.327
12.228
11.104
9.973
8.85
7.75
6.679
5.648
4.671
3.758
2.921
2.162
1.478
0.862
0.301
-0.24
-0.804
-1.448
-2.231
-3.192
-4.347
-5.712
-7.287
-9.07
-11.058
-13.233
-15.57
-18.058
-20.685
-23.428
-26.253
-29.073
-31.76
-34.199
-36.289
-37.981
-39.269
-40.151
-40.606
-40.651
-40.35
-39.719
-38.725
-37.204
-34.846
-31.393
-26.723
-20.851
-13.891
-6.167
1.876
9.627
16.179
20.652
22.365
20.983
16.613
9.886
1.725
-6.758
-14.028
-18.401
-18.214
-12.197
0.127
18.344
41.451
68.035
96.013
122.673
144.753
158.993
162.797
154.367
132.473
96.508
46.861
-14.786
-85.33
-160.976
-238.012
-312.509
-380.136
-436.72
-478.712
-504.849
-516.599
-515.526
-502.084
-474.861
-431.698
-374.172
-309.105
-247.647
-200.825
-173.882
-164.483
-163.279
-160.334
-150.218
-132.646
-112.176
-93.052
-76.376
-61.128
-45.375
-28.488
-11.507
4.007
17.079
27.605
35.731
41.535
45.081
46.496
46.201
44.872
42.956
40.693
38.279
35.838
33.559
31.668
30.293
29.465
29.201
29.494
30.338
31.738
33.66
36.033
38.773
41.779
44.958
48.229
51.509
54.716
57.765
60.569
63.047
65.145
66.84
68.129
69.022
69.538
69.7
69.546
69.124
68.485
67.674
66.729
65.686
64.58
63.454
62.349
61.307
60.357
59.518
58.805
58.226
57.787
57.491
57.337
57.316
57.424
57.659
58.02
58.508
59.121
59.854
60.703
61.663
62.729
63.899
65.167
66.531
67.985
69.527
71.153
72.862
74.648
76.506
78.431
80.416
82.454
84.538
86.662
88.818
90.999
93.2
95.414
97.635
99.857
102.072
104.275
106.458
108.615
110.739
112.822
114.857
116.837
118.756
120.606
122.38
124.073
125.675
127.182
128.585
129.879
131.054
132.106
133.027
133.809
134.448
134.936
135.267
135.436
135.437
135.264
134.913
134.379
133.656
132.741
131.631
130.322
128.812
127.1
125.185
123.066
120.747
118.227
115.509
112.598
109.497
106.21
102.745
99.106
95.303
91.343
87.235
82.99
78.618
74.131
69.541
64.86
60.102
55.28
50.409
45.502
40.575
35.642
30.719
25.822
20.965
16.165
11.436
6.792
2.249
-2.18
-6.482
-10.645
-14.657
-18.507
-22.185
-25.681
-28.987
-32.097
-35.002
-37.699
-40.182
-42.45
-44.5
-46.33
-47.943
-49.338
-50.519
-51.489
-52.252
-52.814
-53.181
-53.359
-53.358
-53.185
-52.851
-52.365
-51.738
-50.981
-50.107
-49.126
-48.05
-46.892
-45.663
-44.375
-43.04
-41.669
-40.273
-38.865
-37.453
-36.048
-34.659
-33.295
-31.964
-30.674
-29.431
-28.24
-27.108
-26.038
-25.033
-24.098
-23.233
-22.441
-21.722
-21.076
-20.503
-20.001
-19.57
-19.205
-18.905
-18.666
-18.485
-18.358
-18.281
-18.249
-18.258
-18.304
-18.382
-18.487
-18.614
-18.759
-18.917
-19.083
-19.254
-19.426
-19.594
-19.756
-19.908
-20.048
-20.173
-20.281
-20.372
-20.443
-20.493
-20.524
-20.533
-20.521
-20.49
-20.438
-20.369
-20.281
-20.178
-20.059
-19.927
-19.784
-19.63
-19.467
-19.298
-19.124
-18.946
-18.767
-18.588
-18.411
-18.237
-18.069
-17.908
-17.756
-17.614
-17.484
-17.367
-17.265
-17.178
-17.107
-17.053
-17.016
-16.996
-16.994
-17.009
-17.041
-17.09
-17.155
-17.236
-17.331
-17.44
-17.564
-17.699
-17.847
-18.007
-18.177
-18.358
-18.549
-18.749
-18.958
-19.175
-19.4
-19.631
-19.869
-20.112
-20.358
-20.608
-20.859
-21.111
-21.362
-21.61
-21.856
-22.097
-22.333
-22.562
-22.785
-22.999
-23.205
-23.402
-23.589
-23.766
-23.933
-24.089
-24.234
-24.367
-24.49
-24.6
-24.699
-24.786
-24.861
-24.923
-24.973
-25.01
-25.035
-25.047
-25.048
-25.038
-25.018
-24.988
-24.952
-24.908
-24.86
-24.809
-24.757
-24.704
-24.653
-24.606
-24.563
-24.527
-24.499
-24.481
-24.473
-24.477
-24.494
-24.525
-24.569
-24.629
-24.703
-24.792
-24.897
-25.017
-25.153
-25.303
-25.468
-25.646
-25.838
-26.042
-26.257
-26.482
-26.714
-26.952
-27.193
-27.434
-27.674
-27.908
-28.135
-28.351
-28.553
-28.739
-28.905
-29.048
-29.165
-29.254
-29.31
-29.331
-29.315
-29.259
-29.161
-29.018
-28.83
-28.595
-28.312
-27.979
-27.597
-27.163
-26.678
-26.142
-25.554
-24.914
-24.223
-23.483
-22.694
-21.859
-20.979
-20.057
-19.095
-18.098
-17.067
-16.005
-14.916
-13.804
-12.672
-11.525
-10.367
-9.202
-8.036
-6.875
-5.722
-4.584
-3.465
-2.371
-1.305
-0.274
0.719
1.669
2.571
3.419
4.21
4.938
5.598
6.186
6.696
7.125
7.47
7.729
7.898
7.979
7.969
7.87
7.682
7.405
7.041
6.59
6.056
5.441
4.746
3.979
3.143
2.246
1.294
0.295
-0.744
-1.816
-2.913
-4.032
-5.167
-6.316
-7.47
-8.618
-9.748
-10.841
-11.875
-12.831
-13.687
-14.428
-15.039
-15.507
-15.824
-15.985
-15.991
-15.841
-15.526
-15.04
-14.383
-13.566
-12.622
-11.594
-10.536
-9.504
-8.558
-7.751
-7.136
-6.758
-6.647
-6.817
-7.25
-7.92
-8.817
-9.926
-11.231
-12.707
-14.274
-15.813
-17.183
-18.234
-18.803
-18.761
-17.942
-16.12
-13.185
-9.176
-4.302
1.017
6.423
11.727
16.684
20.927
24.294
26.882
29.205
32.357
37.253
44.315
53.876
66.114
80.687
96.656
112.168
124.389
130.681
128.871
116.816
92.854
56.098
7.793
-48.297
-108.16
-168.814
-230.18
-293.974
-358.346
-416.731
-459.44
-476.89
-465.327
-430.198
-381.569
-329.492
-283.605
-246.531
-217.231
-195.876
-178.034
-161.46
-145.642
-127.512
-108.233
-88.893
-69.264
-50.861
-33.367
-16.272
-0.277
14.302
26.906
36.9
44.323
49.423
52.408
53.613
53.354
51.903
49.584
46.687
43.427
40.024
36.689
33.609
30.975
28.922
27.526
26.841
26.874
27.597
28.966
30.904
33.314
36.105
39.177
42.443
45.824
49.217
52.52
55.636
58.463
60.938
63.026
64.703
65.965
66.828
67.315
67.464
67.327
66.944
66.359
65.61
64.729
63.758
62.739
61.714
60.727
59.808
58.977
58.252
57.645
57.161
56.802
56.565
56.442
56.429
56.524
56.725
57.034
57.446
57.96
58.571
59.277
60.073
60.959
61.932
62.991
64.135
65.361
66.67
68.06
69.531
71.078
72.699
74.388
76.142
77.956
79.826
81.747
83.713
85.72
87.764
89.838
91.939
94.062
96.2
98.349
100.504
102.66
104.811
106.953
109.08
111.187
113.268
115.317
117.328
119.294
121.208
123.065
124.857
126.577
128.219
129.777
131.243
132.611
133.875
135.027
136.062
136.972
137.752
138.396
138.899
139.254
139.459
139.509
139.4
139.128
138.692
138.088
137.315
136.37
135.252
133.961
132.498
130.862
129.056
127.081
124.94
122.638
120.178
117.565
114.804
111.901
108.863
105.696
102.408
99.006
95.5
91.899
88.212
84.449
80.619
76.734
72.802
68.835
64.843
60.834
56.821
52.812
48.817
44.848
40.913
37.022
33.185
29.411
25.709
22.087
18.554
15.116
11.782
8.558
5.451
2.467
-0.388
-3.11
-5.693
-8.134
-10.428
-12.574
-14.569
-16.412
-18.103
-19.641
-21.026
-22.26
-23.345
-24.282
-25.074
-25.724
-26.236
-26.615
-26.865
-26.991
-27
-26.897
-26.688
-26.381
-25.982
-25.499
-24.939
-24.31
-23.619
-22.874
-22.085
-21.26
-20.406
-19.533
-18.65
-17.763
-16.882
-16.014
-15.166
-14.345
-13.558
-12.81
-12.107
-11.454
-10.855
-10.314
-9.834
-9.418
-9.067
-8.782
-8.563
-8.411
-8.324
-8.301
-8.341
-8.44
-8.598
-8.81
-9.073
-9.384
-9.736
-10.127
-10.549
-10.998
-11.468
-11.953
-12.447
-12.944
-13.437
-13.922
-14.393
-14.844
-15.27
-15.667
-16.031
-16.357
-16.643
-16.886
-17.085
-17.239
-17.347
-17.41
-17.429
-17.405
-17.341
-17.238
-17.101
-16.931
-16.733
-16.511
-16.27
-16.014
-15.749
-15.48
-15.214
-14.956
-14.712
-14.488
-14.291
-14.125
-13.997
-13.911
-13.873
-13.888
-13.959
-14.09
-14.285
-14.546
-14.874
-15.27
-15.735
-16.266
-16.863
-17.524
-18.244
-19.021
-19.851
-20.727
-21.646
-22.601
-23.587
-24.596
-25.622
-26.657
-27.694
-28.724
-29.741
-30.736
-31.701
-32.629
-33.512
-34.344
-35.118
-35.827
-36.466
-37.029
-37.51
-37.907
-38.216
-38.433
-38.558
-38.59
-38.529
-38.376
-38.134
-37.805
-37.392
-36.901
-36.336
-35.702
-35.005
-34.253
-33.452
-32.611
-31.736
-30.838
-29.923
-29.001
-28.081
-27.171
-26.28
-25.414
-24.583
-23.794
-23.053
-22.367
-21.742
-21.185
-20.698
-20.288
-19.956
-19.706
-19.538
-19.453
-19.451
-19.53
-19.688
-19.922
-20.228
-20.603
-21.04
-21.535
-22.082
-22.673
-23.302
-23.961
-24.642
-25.338
-26.039
-26.738
-27.428
-28.1
-28.748
-29.366
-29.945
-30.482
-30.97
-31.404
-31.78
-32.095
-32.346
-32.53
-32.647
-32.696
-32.677
-32.592
-32.443
-32.233
-31.965
-31.644
-31.274
-30.86
-30.409
-29.927
-29.42
-28.896
-28.362
-27.826
-27.295
-26.777
-26.279
-25.809
-25.372
-24.974
-24.621
-24.317
-24.067
-23.873
-23.737
-23.663
-23.651
-23.7
-23.81
-23.98
-24.206
-24.486
-24.815
-25.188
-25.6
-26.044
-26.515
-27.004
-27.503
-28.006
-28.502
-28.983
-29.439
-29.862
-30.24
-30.565
-30.827
-31.017
-31.128
-31.15
-31.077
-30.902
-30.619
-30.225
-29.715
-29.086
-28.336
-27.465
-26.473
-25.363
-24.137
-22.799
-21.354
-19.808
-18.168
-16.442
-14.638
-12.765
-10.831
-8.848
-6.827
-4.778
-2.715
-0.649
1.406
3.438
5.432
7.376
9.256
11.059
12.774
14.388
15.889
17.267
18.51
19.61
20.558
21.346
21.965
22.409
22.674
22.759
22.66
22.378
21.914
21.272
20.46
19.483
18.349
17.063
15.631
14.061
12.364
10.551
8.635
6.629
4.546
2.404
0.223
-1.981
-4.193
-6.406
-8.616
-10.817
-12.996
-15.14
-17.233
-19.255
-21.19
-23.014
-24.696
-26.218
-27.567
-28.738
-29.736
-30.56
-31.204
-31.663
-31.925
-31.979
-31.824
-31.468
-30.932
-30.257
-29.49
-28.683
-27.895
-27.172
-26.569
-26.143
-25.946
-26.023
-26.375
-27.009
-27.992
-29.338
-30.975
-32.744
-34.284
-35.238
-35.506
-35.023
-33.686
-31.619
-29.016
-26.279
-24.397
-24.305
-26.297
-30.34
-36.059
-42.577
-49.11
-54.651
-57.234
-54.853
-46.366
-31.376
-10.506
14.713
42.947
72.699
101.228
125.259
141.874
148.78
145.011
130.697
105.734
69.959
24.377
-28.913
-87.115
-147.197
-206.918
-264.763
-318.727
-366.134
-404.643
-432.731
-450.018
-456.953
-453.797
-440.454
-417.411
-386.344
-349.613
-309.657
-268.323
-226.871
-186.74
-149.861
-117.948
-91.712
-70.974
-55.013
-43.117
-34.796
-29.287
-25.263
-21.384
-16.864
-11.451
-5.335
1.152
7.79
14.206
19.712
23.706
25.913
26.318
25.187
22.898
19.769
16.187
12.653
9.555
7.126
5.486
4.613
4.442
4.939
6.033
7.616
9.602
11.908
14.456
17.194
20.053
22.933
25.741
28.376
30.745
32.794
34.489
35.812
36.769
37.375
37.652
37.635
37.363
36.873
36.202
35.386
34.459
33.463
32.439
31.433
30.488
29.635
28.894
28.28
27.801
27.461
27.262
27.201
27.271
27.469
27.792
28.239
28.812
29.509
30.325
31.256
32.298
33.446
34.696
36.045
37.489
39.024
40.645
42.349
44.132
45.99
47.916
49.903
51.945
54.034
56.163
58.324
60.511
62.717
64.935
67.159
69.385
71.606
73.817
76.014
78.19
80.341
82.462
84.549
86.596
88.598
90.552
92.455
94.302
96.086
97.802
99.444
101.01
102.5
103.912
105.232
106.464
107.622
108.715
109.758
110.748
111.657
112.482
113.246
113.926
114.465
114.814
114.922
114.784
114.471
114.001
113.29
112.427
111.695
111.143
110.689
110.372
109.869
109.803
111.947
115.821
119.841
121.239
114.955
101.566
86.089
73.615
71.362
79.424
91.061
101.086
103.788
98.465
90.188
81.973
75.992
72.779
70.263
67.581
64.793
61.833
59.033
56.476
53.905
51.267
48.616
45.927
43.189
40.449
37.707
34.939
32.155
29.325
26.425
23.529
20.67
17.774
14.924
12.409
10.298
8.504
7.069
5.702
4.937
6.564
10.27
14.386
16.272
10.855
-1.749
-16.401
-28.046
-29.497
-20.037
-6.525
5.722
11.039
8.224
2.378
-3.299
-6.707
-7.12
-6.621
-6.208
-5.805
-5.499
-4.987
-4.186
-3.384
-2.677
-2.023
-1.434
-0.93
-0.506
-0.153
0.147
0.439
0.735
1.008
1.249
1.457
1.63
1.767
1.867
1.922
1.931
1.896
1.821
1.706
1.553
1.363
1.139
0.884
0.599
0.289
-0.043
-0.394
-0.759
-1.136
-1.519
-1.906
-2.292
-2.674
-3.047
-3.409
-3.755
-4.083
-4.388
-4.669
-4.923
-5.146
-5.337
-5.494
-5.616
-5.701
-5.749
-5.759
-5.731
-5.665
-5.562
-5.423
-5.249
-5.042
-4.803
-4.534
-4.239
-3.918
-3.576
-3.216
-2.84
-2.453
-2.057
-1.658
-1.258
-0.861
-0.472
-0.094
0.269
0.614
0.936
1.234
1.502
1.739
1.943
2.11
2.238
2.328
2.376
2.382
2.345
2.265
2.142
1.976
1.767
1.516
1.224
0.893
0.524
0.118
-0.321
-0.792
-1.291
-1.817
-2.366
-2.935
-3.52
-4.118
-4.725
-5.337
-5.95
-6.561
-7.164
-7.757
-8.336
-8.898
-9.439
-9.956
-10.446
-10.908
-11.339
-11.737
-12.101
-12.429
-12.719
-12.972
-13.187
-13.363
-13.501
-13.601
-13.664
-13.69
-13.682
-13.64
-13.565
-13.46
-13.326
-13.166
-12.982
-12.778
-12.556
-12.32
-12.072
-11.818
-11.559
-11.301
-11.045
-10.796
-10.557
-10.331
-10.121
-9.93
-9.761
-9.615
-9.495
-9.403
-9.339
-9.306
-9.304
-9.333
-9.393
-9.484
-9.605
-9.756
-9.936
-10.143
-10.377
-10.634
-10.915
-11.216
-11.535
-11.869
-12.216
-12.571
-12.933
-13.297
-13.66
-14.019
-14.37
-14.71
-15.036
-15.343
-15.63
-15.894
-16.131
-16.338
-16.515
-16.658
-16.767
-16.841
-16.878
-16.88
-16.845
-16.776
-16.672
-16.535
-16.367
-16.169
-15.944
-15.693
-15.419
-15.125
-14.815
-14.492
-14.159
-13.82
-13.479
-13.139
-12.805
-12.479
-12.166
-11.869
-11.592
-11.339
-11.111
-10.914
-10.75
-10.62
-10.529
-10.476
-10.465
-10.495
-10.566
-10.679
-10.832
-11.025
-11.256
-11.523
-11.824
-12.155
-12.515
-12.899
-13.304
-13.726
-14.159
-14.599
-15.041
-15.48
-15.912
-16.33
-16.731
-17.108
-17.457
-17.774
-18.052
-18.286
-18.473
-18.606
-18.683
-18.697
-18.646
-18.527
-18.336
-18.072
-17.733
-17.318
-16.827
-16.259
-15.614
-14.895
-14.101
-13.235
-12.3
-11.299
-10.236
-9.115
-7.941
-6.72
-5.457
-4.158
-2.828
-1.474
-0.103
1.279
2.664
4.045
5.415
6.765
8.086
9.37
10.61
11.795
12.919
13.975
14.953
15.849
16.654
17.364
17.97
18.469
18.854
19.119
19.259
19.27
19.149
18.893
18.501
17.973
17.311
16.517
15.594
14.546
13.375
12.085
10.682
9.171
7.561
5.863
4.088
2.249
0.359
-1.568
-3.522
-5.49
-7.462
-9.435
-11.401
-13.361
-15.306
-17.224
-19.103
-20.934
-22.699
-24.393
-26.01
-27.534
-28.956
-30.266
-31.455
-32.521
-33.462
-34.262
-34.898
-35.35
-35.611
-35.696
-35.628
-35.418
-35.072
-34.598
-34.019
-33.407
-32.837
-32.378
-32.069
-31.935
-32.032
-32.369
-32.903
-33.514
-33.935
-33.89
-33.213
-31.809
-29.62
-26.881
-23.981
-21.357
-19.738
-19.759
-21.808
-26.139
-32.706
-40.794
-49.286
-57.039
-62.656
-64.95
-62.903
-55.543
-42.454
-24.002
-1.399
23.861
50.47
77.147
101.85
122.379
136.005
139.157
131.121
112.284
83.467
49.594
12.669
-29.703
-79.732
-144.877
-229.692
-326.977
-427.026
-514.194
-570.973
-592.405
-576.834
-528.334
-461.255
-387.236
-319.39
-268.504
-233.903
-210.875
-191.205
-167.74
-140.061
-111.102
-85.807
-67.537
-56.634
-51.772
-50.138
-49.318
-47.905
-45.235
-41.502
-37.023
-31.839
-26.033
-19.855
-13.874
-8.895
-5.366
-3.335
-2.616
-2.891
-3.859
-5.243
-6.677
-7.725
-8.113
-7.741
-6.605
-4.812
-2.456
0.401
3.664
7.207
10.932
14.751
18.589
22.389
26.062
29.498
32.62
35.374
37.726
39.672
41.208
42.34
43.101
43.531
43.67
43.56
43.235
42.726
42.075
41.325
40.524
39.721
38.953
38.251
37.637
37.128
36.737
36.473
36.336
36.323
36.433
36.669
37.033
37.529
38.159
38.92
39.813
40.835
41.985
43.262
44.663
46.187
47.83
49.592
51.469
53.461
55.564
57.771
60.077
62.475
64.958
67.518
70.148
72.839
75.584
78.374
81.201
84.059
86.938
89.832
92.732
95.63
98.517
101.387
104.229
107.037
109.803
112.517
115.173
117.763
120.279
122.714
125.061
127.313
129.465
131.51
133.443
135.259
136.952
138.52
139.957
141.259
142.423
143.446
144.325
145.056
145.637
146.065
146.34
146.458
146.42
146.223
145.869
145.355
144.685
143.858
142.875
141.737
140.446
139.011
137.435
135.725
133.885
131.916
129.826
127.628
125.325
122.906
120.363
117.69
114.893
112.004
109.035
105.963
102.82
99.67
96.565
93.565
90.68
87.838
85.031
82.348
79.701
76.806
73.624
70.24
66.621
63.107
59.051
52.658
44.453
36.038
30.259
32.269
41.405
52.591
60.644
58.221
45.341
28.854
14.022
6.674
7.446
11.193
14.88
16.292
14.926
12.897
11.075
9.41
7.962
6.407
4.688
3.087
1.679
0.418
-0.689
-1.629
-2.416
-3.063
-3.598
-4.072
-4.499
-4.861
-5.152
-5.379
-5.544
-5.651
-5.704
-5.698
-5.637
-5.527
-5.374
-5.182
-4.956
-4.698
-4.414
-4.108
-3.783
-3.444
-3.095
-2.739
-2.381
-2.024
-1.671
-1.326
-0.992
-0.673
-0.372
-0.09
0.17
0.405
0.616
0.8
0.957
1.089
1.194
1.269
1.317
1.336
1.33
1.302
1.247
1.165
1.069
0.971
0.88
0.807
0.744
0.678
0.633
0.621
0.597
0.529
0.387
0.143
-0.152
-0.446
-0.79
-1.211
-1.53
-1.559
-1.335
-0.846
-0.138
0.458
1.848
4.757
7.746
10.404
10.694
6.038
-0.457
-7.493
-14.04
-15.886
-14.818
-11.05
-1.565
10.04
21.088
28.937
27.019
16.367
2.834
-9.486
-14.795
-12.296
-6.925
-1.527
1.652
1.877
1.228
0.632
0.01
-0.565
-1.39
-2.534
-3.697
-4.768
-5.802
-6.794
-7.725
-8.6
-9.426
-10.22
-11.027
-11.857
-12.682
-13.487
-14.27
-15.023
-15.744
-16.427
-17.061
-17.641
-18.165
-18.632
-19.039
-19.386
-19.668
-19.885
-20.037
-20.123
-20.145
-20.103
-20
-19.838
-19.619
-19.346
-19.024
-18.656
-18.247
-17.8
-17.32
-16.813
-16.284
-15.738
-15.18
-14.617
-14.054
-13.496
-12.95
-12.421
-11.913
-11.432
-10.982
-10.568
-10.193
-9.861
-9.574
-9.337
-9.15
-9.016
-8.936
-8.911
-8.941
-9.026
-9.165
-9.357
-9.601
-9.893
-10.233
-10.618
-11.044
-11.509
-12.009
-12.54
-13.099
-13.682
-14.285
-14.903
-15.532
-16.169
-16.808
-17.445
-18.077
-18.699
-19.308
-19.899
-20.47
-21.016
-21.534
-22.021
-22.474
-22.892
-23.272
-23.612
-23.91
-24.167
-24.381
-24.553
-24.682
-24.768
-24.813
-24.817
-24.782
-24.71
-24.602
-24.46
-24.288
-24.086
-23.859
-23.609
-23.338
-23.05
-22.747
-22.434
-22.112
-21.785
-21.457
-21.132
-20.811
-20.499
-20.2
-19.916
-19.65
-19.405
-19.185
-18.991
-18.825
-18.69
-18.586
-18.517
-18.481
-18.48
-18.514
-18.582
-18.685
-18.821
-18.989
-19.187
-19.414
-19.668
-19.946
-20.246
-20.565
-20.901
-21.25
-21.61
-21.977
-22.347
-22.718
-23.085
-23.444
-23.793
-24.127
-24.442
-24.735
-25.002
-25.24
-25.446
-25.617
-25.751
-25.845
-25.897
-25.906
-25.871
-25.792
-25.669
-25.503
-25.293
-25.043
-24.753
-24.426
-24.065
-23.672
-23.25
-22.804
-22.336
-21.851
-21.354
-20.848
-20.337
-19.827
-19.322
-18.826
-18.344
-17.88
-17.439
-17.024
-16.639
-16.288
-15.974
-15.7
-15.468
-15.281
-15.138
-15.042
-14.992
-14.988
-15.029
-15.112
-15.236
-15.397
-15.592
-15.817
-16.067
-16.338
-16.625
-16.92
-17.219
-17.514
-17.798
-18.065
-18.308
-18.52
-18.695
-18.824
-18.904
-18.926
-18.886
-18.778
-18.597
-18.339
-18.001
-17.578
-17.068
-16.471
-15.785
-15.009
-14.146
-13.196
-12.162
-11.047
-9.855
-8.592
-7.261
-5.87
-4.425
-2.933
-1.403
0.155
1.733
3.321
4.907
6.48
8.031
9.547
11.016
12.429
13.775
15.043
16.222
17.304
18.278
19.138
19.875
20.483
20.955
21.286
21.471
21.506
21.388
21.116
20.69
20.11
19.378
18.5
17.479
16.322
15.036
13.628
12.106
10.48
8.759
6.959
5.093
3.178
1.231
-0.732
-2.696
-4.643
-6.559
-8.435
-10.263
-12.04
-13.763
-15.417
-16.99
-18.467
-19.831
-21.073
-22.188
-23.162
-23.984
-24.648
-25.144
-25.479
-25.657
-25.667
-25.494
-25.11
-24.503
-23.696
-22.723
-21.619
-20.421
-19.145
-17.817
-16.503
-15.276
-14.206
-13.356
-12.731
-12.339
-12.264
-12.53
-13.114
-13.898
-14.591
-14.908
-14.686
-13.802
-12.176
-9.932
-7.268
-4.566
-2.54
-1.849
-3.029
-6.408
-11.917
-19.052
-27.078
-34.995
-41.393
-44.79
-43.681
-36.875
-23.859
-4.779
19.748
48.587
79.751
110.611
138.12
158.958
170.037
168.719
152.309
120.073
74.174
16.942
-48.734
-122.821
-209.045
-305.931
-406.854
-499.037
-564.254
-592.649
-583.633
-542.949
-482.302
-411.166
-335.131
-260.998
-198.373
-154.672
-134.89
-138.873
-154.082
-167.204
-169.698
-155.019
-128.514
-100.31
-75.328
-58.314
-48.387
-39.715
-30.293
-19.233
-6.86
4.102
12.503
18.436
21.946
23.61
23.915
23.071
21.457
19.472
17.391
15.415
13.712
12.425
11.652
11.451
11.816
12.695
14.052
15.852
18.049
20.574
23.347
26.282
29.304
32.338
35.295
38.08
40.598
42.781
44.59
46.006
47.024
47.652
47.908
47.827
47.459
46.852
46.049
45.094
44.023
42.88
41.711
40.562
39.48
38.501
37.65
36.948
36.41
36.046
35.861
35.854
36.017
36.345
36.835
37.484
38.29
39.248
40.353
41.598
42.975
44.479
46.103
47.842
49.688
51.634
53.674
55.802
58.012
60.298
62.649
65.058
67.514
70.008
72.531
75.074
77.628
80.183
82.732
85.266
87.779
90.265
92.718
95.132
97.504
99.83
102.106
104.33
106.501
108.614
110.668
112.661
114.591
116.453
118.246
119.964
121.606
123.169
124.651
126.051
127.365
128.594
129.738
130.798
131.771
132.655
133.448
134.146
134.745
135.241
135.63
135.905
136.06
136.092
135.999
135.779
135.426
134.934
134.291
133.491
132.532
131.414
130.137
128.705
127.123
125.406
123.58
121.667
119.682
117.63
115.506
113.309
111.039
108.694
106.275
103.768
101.158
98.433
95.591
92.622
89.511
86.223
82.705
78.912
74.826
70.448
65.797
60.892
55.762
50.444
44.992
39.483
33.988
28.561
23.242
18.072
13.106
8.423
4.121
0.276
-3.063
-5.871
-8.14
-9.867
-11.065
-11.771
-12.052
-11.998
-11.686
-11.17
-10.488
-9.678
-8.789
-7.891
-7.061
-6.358
-5.823
-5.483
-5.359
-5.471
-5.822
-6.391
-7.131
-7.981
-8.895
-9.847
-10.82
-11.803
-12.774
-13.708
-14.58
-15.377
-16.091
-16.713
-17.233
-17.64
-17.932
-18.12
-18.226
-18.275
-18.286
-18.267
-18.221
-18.151
-18.059
-17.946
-17.811
-17.645
-17.444
-17.205
-16.929
-16.618
-16.272
-15.887
-15.461
-14.988
-14.468
-13.901
-13.288
-12.633
-11.938
-11.209
-10.453
-9.679
-8.896
-8.111
-7.33
-6.559
-5.805
-5.075
-4.374
-3.708
-3.082
-2.502
-1.973
-1.501
-1.09
-0.746
-0.47
-0.268
-0.14
-0.089
-0.117
-0.222
-0.406
-0.668
-1.007
-1.42
-1.906
-2.461
-3.081
-3.763
-4.502
-5.291
-6.127
-7.001
-7.909
-8.843
-9.798
-10.766
-11.741
-12.717
-13.689
-14.649
-15.593
-16.515
-17.411
-18.274
-19.103
-19.892
-20.639
-21.341
-21.996
-22.602
-23.158
-23.664
-24.119
-24.523
-24.877
-25.182
-25.44
-25.65
-25.816
-25.939
-26.022
-26.067
-26.077
-26.054
-26.002
-25.923
-25.82
-25.696
-25.555
-25.398
-25.23
-25.052
-24.868
-24.679
-24.487
-24.295
-24.104
-23.914
-23.727
-23.544
-23.364
-23.187
-23.014
-22.844
-22.676
-22.511
-22.347
-22.184
-22.02
-21.856
-21.69
-21.523
-21.352
-21.179
-21.003
-20.823
-20.64
-20.454
-20.265
-20.073
-19.878
-19.68
-19.48
-19.278
-19.074
-18.87
-18.665
-18.462
-18.262
-18.065
-17.875
-17.692
-17.518
-17.355
-17.206
-17.072
-16.954
-16.856
-16.778
-16.723
-16.691
-16.685
-16.705
-16.752
-16.826
-16.928
-17.057
-17.214
-17.397
-17.606
-17.84
-18.099
-18.382
-18.686
-19.013
-19.359
-19.723
-20.104
-20.5
-20.908
-21.327
-21.752
-22.182
-22.614
-23.044
-23.471
-23.89
-24.299
-24.695
-25.074
-25.434
-25.772
-26.086
-26.373
-26.631
-26.859
-27.055
-27.219
-27.35
-27.446
-27.508
-27.536
-27.528
-27.486
-27.409
-27.296
-27.15
-26.969
-26.755
-26.508
-26.231
-25.923
-25.588
-25.227
-24.842
-24.435
-24.01
-23.569
-23.115
-22.65
-22.179
-21.703
-21.227
-20.752
-20.282
-19.82
-19.367
-18.926
-18.498
-18.086
-17.691
-17.313
-16.955
-16.616
-16.3
-16.006
-15.735
-15.49
-15.269
-15.075
-14.908
-14.768
-14.656
-14.571
-14.514
-14.483
-14.479
-14.499
-14.544
-14.611
-14.699
-14.806
-14.93
-15.069
-15.222
-15.384
-15.556
-15.734
-15.918
-16.105
-16.293
-16.483
-16.671
-16.858
-17.041
-17.221
-17.396
-17.565
-17.726
-17.879
-18.023
-18.156
-18.276
-18.384
-18.477
-18.555
-18.617
-18.661
-18.687
-18.693
-18.681
-18.648
-18.596
-18.523
-18.43
-18.317
-18.184
-18.032
-17.859
-17.667
-17.454
-17.221
-16.967
-16.692
-16.393
-16.072
-15.725
-15.353
-14.953
-14.524
-14.066
-13.575
-13.052
-12.494
-11.901
-11.273
-10.608
-9.906
-9.167
-8.392
-7.579
-6.729
-5.843
-4.921
-3.964
-2.972
-1.946
-0.887
0.203
1.324
2.473
3.647
4.845
6.062
7.295
8.541
9.793
11.048
12.299
13.539
14.763
15.962
17.129
18.257
19.337
20.36
21.32
22.208
23.017
23.741
24.372
24.903
25.328
25.641
25.836
25.907
25.851
25.661
25.335
24.87
24.265
23.519
22.632
21.606
20.443
19.149
17.731
16.197
14.558
12.823
11.002
9.107
7.148
5.138
3.086
1.002
-1.105
-3.227
-5.349
-7.459
-9.541
-11.587
-13.59
-15.549
-17.462
-19.32
-21.107
-22.807
-24.402
-25.877
-27.212
-28.377
-29.347
-30.101
-30.639
-30.989
-31.173
-31.205
-31.086
-30.793
-30.32
-29.7
-28.985
-28.243
-27.537
-26.878
-26.311
-25.953
-25.852
-25.978
-26.194
-26.14
-25.483
-24.151
-22.122
-19.385
-16.138
-12.572
-9.031
-6.414
-5.603
-6.957
-10.585
-16.196
-22.999
-30.337
-37.341
-42.246
-43.185
-38.796
-28.137
-11.199
11.164
38.085
68.119
98.473
125.78
146.6
157.658
156.656
142.07
112.589
67.966
9.856
-58.847
-134.419
-212.564
-289.116
-359.789
-419.96
-466.615
-499.496
-519.06
-525.366
-516.345
-488.28
-441.072
-380.76
-318.867
-267.11
-231.355
-209.554
-193.272
-174.826
-151.092
-123.43
-96.858
-75.377
-60.242
-50.753
-44.604
-39.741
-35.073
-30.294
-25.627
-21.047
-16.293
-11.21
-5.781
-0.471
3.98
7.235
9.253
10.121
10.085
9.334
8.021
6.488
5.189
4.407
4.286
4.848
5.979
7.611
9.708
12.19
14.953
17.898
20.937
24.012
27.087
30.104
32.993
35.678
38.074
40.132
41.828
43.152
44.119
44.751
45.069
45.11
44.912
44.515
43.958
43.274
42.491
41.645
40.773
39.915
39.116
38.411
37.82
37.363
37.049
36.884
36.874
37.019
37.313
37.753
38.339
39.069
39.948
40.973
42.142
43.452
44.897
46.472
48.175
50.001
51.947
54.006
56.177
58.454
60.836
63.318
65.893
68.554
71.294
74.103
76.974
79.898
82.863
85.862
88.886
91.925
94.971
98.017
101.053
104.072
107.066
110.026
112.944
115.814
118.627
121.377
124.056
126.658
129.176
131.605
133.939
136.171
138.296
140.308
142.203
143.974
145.618
147.129
148.503
149.737
150.828
151.773
152.571
153.219
153.715
154.06
154.251
154.289
154.172
153.9
153.473
152.892
152.158
151.27
150.231
149.042
147.705
146.22
144.591
142.818
140.905
138.854
136.668
134.35
131.905
129.336
126.648
123.846
120.936
117.924
114.814
111.612
108.325
104.959
101.519
98.013
94.446
90.825
87.158
83.451
79.712
75.947
72.164
68.371
64.575
60.784
57.006
53.249
49.521
45.831
42.187
38.6
35.076
31.625
28.255
24.975
21.792
18.713
15.746
12.896
10.169
7.571
5.107
2.781
0.597
-1.441
-3.33
-5.069
-6.655
-8.087
-9.364
-10.487
-11.456
-12.272
-12.936
-13.451
-13.82
-14.045
-14.132
-14.086
-13.911
-13.616
-13.206
-12.69
-12.077
-11.374
-10.592
-9.739
-8.824
-7.858
-6.848
-5.804
-4.736
-3.651
-2.558
-1.466
-0.382
0.688
1.734
2.752
3.734
4.675
5.57
6.413
7.199
7.926
8.587
9.181
9.705
10.157
10.535
10.838
11.067
11.223
11.306
11.32
11.267
11.15
10.973
10.741
10.456
10.125
9.751
9.34
8.895
8.422
7.924
7.407
6.874
6.329
5.776
5.217
4.658
4.1
3.547
3.003
2.469
1.949
1.445
0.959
0.495
0.053
-0.365
-0.758
-1.124
-1.464
-1.778
-2.066
-2.329
-2.567
-2.784
-2.98
-3.158
-3.32
-3.468
-3.605
-3.732
-3.853
-3.968
-4.08
-4.192
-4.304
-4.418
-4.536
-4.66
-4.79
-4.929
-5.077
-5.237
-5.41
-5.597
-5.799
-6.018
-6.255
-6.512
-6.789
-7.087
-7.407
-7.749
-8.115
-8.503
-8.914
-9.347
-9.802
-10.276
-10.77
-11.282
-11.809
-12.352
-12.908
-13.476
-14.054
-14.641
-15.234
-15.832
-16.433
-17.035
-17.636
-18.233
-18.825
-19.409
-19.982
-20.544
-21.09
-21.62
-22.13
-22.618
-23.082
-23.519
-23.926
-24.303
-24.647
-24.955
-25.227
-25.462
-25.659
-25.816
-25.934
-26.012
-26.05
-26.05
-26.01
-25.933
-25.818
-25.668
-25.485
-25.27
-25.025
-24.754
-24.459
-24.143
-23.809
-23.461
-23.1
-22.732
-22.358
-21.983
-21.609
-21.241
-20.882
-20.534
-20.202
-19.889
-19.597
-19.328
-19.086
-18.872
-18.688
-18.535
-18.414
-18.327
-18.274
-18.254
-18.269
-18.317
-18.398
-18.509
-18.649
-18.816
-19.008
-19.22
-19.451
-19.696
-19.953
-20.217
-20.486
-20.757
-21.024
-21.286
-21.539
-21.779
-22.004
-22.211
-22.398
-22.561
-22.701
-22.815
-22.902
-22.962
-22.994
-22.999
-22.978
-22.931
-22.86
-22.765
-22.65
-22.517
-22.369
-22.209
-22.041
-21.87
-21.699
-21.533
-21.378
-21.236
-21.114
-21.016
-20.945
-20.907
-20.904
-20.94
-21.018
-21.14
-21.31
-21.527
-21.793
-22.108
-22.472
-22.882
-23.339
-23.838
-24.377
-24.951
-25.557
-26.189
-26.842
-27.509
-28.185
-28.861
-29.532
-30.187
-30.82
-31.42
-31.98
-32.489
-32.939
-33.322
-33.627
-33.847
-33.974
-34.001
-33.922
-33.729
-33.418
-32.983
-32.421
-31.73
-30.907
-29.951
-28.861
-27.641
-26.291
-24.815
-23.218
-21.506
-19.685
-17.762
-15.745
-13.643
-11.467
-9.226
-6.931
-4.596
-2.232
0.146
2.525
4.889
7.225
9.518
11.754
13.918
15.997
17.978
19.849
21.596
23.209
24.675
25.986
27.13
28.102
28.891
29.492
29.899
30.109
30.118
29.927
29.536
28.946
28.162
27.189
26.034
24.705
23.209
21.556
19.756
17.82
15.758
13.585
11.318
8.973
6.571
4.132
1.674
-0.786
-3.233
-5.657
-8.048
-10.393
-12.684
-14.906
-17.036
-19.049
-20.91
-22.589
-24.073
-25.352
-26.422
-27.287
-27.941
-28.392
-28.649
-28.709
-28.563
-28.206
-27.625
-26.836
-25.887
-24.85
-23.814
-22.86
-22.036
-21.362
-20.862
-20.569
-20.516
-20.723
-21.185
-21.871
-22.804
-24.076
-25.693
-27.548
-29.389
-30.753
-31.235
-30.711
-29.086
-26.249
-22.372
-17.716
-12.851
-8.977
-7.095
-7.508
-10.261
-15.065
-21.095
-27.583
-33.242
-35.801
-33.321
-24.759
-9.673
11.505
37.539
67.002
97.43
125.113
146.496
158.386
157.991
143.417
113.455
68.616
12.122
-52.228
-121.646
-196.339
-278.418
-366.094
-451.834
-522.388
-564.407
-572.619
-551.228
-512.165
-468.05
-426.013
-387.208
-348.569
-307.793
-265.584
-224.913
-189.665
-161.619
-140.431
-124.9
-113.203
-104.068
-96.594
-89.359
-81.138
-71.389
-59.962
-47.223
-33.926
-20.619
-7.898
3.317
12.361
18.959
23.03
24.823
24.762
23.167
20.451
17.188
13.797
10.581
7.779
5.477
3.723
2.588
2.075
2.133
2.732
3.825
5.362
7.313
9.614
12.184
14.942
17.79
20.63
23.379
25.945
28.244
30.222
31.846
33.101
34
34.559
34.8
34.759
34.476
33.994
33.356
32.604
31.776
30.916
30.065
29.266
28.561
27.981
27.545
27.269
27.157
27.214
27.439
27.829
28.374
29.066
29.902
30.875
31.984
33.224
34.587
36.067
37.655
39.344
41.128
43.002
44.958
46.99
49.094
51.264
53.495
55.782
58.119
60.497
62.908
65.346
67.803
70.271
72.742
75.21
77.669
80.112
82.535
84.932
87.3
89.633
91.929
94.182
96.39
98.549
100.656
102.708
104.701
106.634
108.503
110.306
112.039
113.7
115.287
116.795
118.223
119.566
120.822
121.987
123.059
124.033
124.906
125.674
126.335
126.885
127.319
127.636
127.83
127.897
127.835
127.639
127.305
126.831
126.211
125.444
124.525
123.452
122.224
120.836
119.29
117.582
115.714
113.684
111.495
109.147
106.644
103.987
101.182
98.232
95.143
91.921
88.573
85.105
81.527
77.846
74.072
70.215
66.283
62.289
58.243
54.155
50.038
45.903
41.762
37.628
33.511
29.426
25.382
21.393
17.471
13.626
9.869
6.211
2.661
-0.77
-4.074
-7.244
-10.272
-13.151
-15.877
-18.444
-20.848
-23.088
-25.16
-27.063
-28.798
-30.364
-31.763
-32.996
-34.067
-34.978
-35.733
-36.337
-36.794
-37.111
-37.292
-37.345
-37.276
-37.092
-36.801
-36.41
-35.927
-35.358
-34.712
-33.995
-33.216
-32.38
-31.496
-30.569
-29.607
-28.614
-27.597
-26.561
-25.511
-24.451
-23.385
-22.317
-21.25
-20.186
-19.129
-18.081
-17.043
-16.019
-15.009
-14.015
-13.038
-12.078
-11.138
-10.216
-9.314
-8.432
-7.57
-6.728
-5.907
-5.107
-4.329
-3.573
-2.84
-2.13
-1.444
-0.783
-0.147
0.463
1.045
1.599
2.122
2.615
3.074
3.5
3.89
4.243
4.559
4.836
5.074
5.272
5.43
5.547
5.624
5.66
5.656
5.611
5.526
5.402
5.239
5.04
4.804
4.535
4.234
3.903
3.544
3.159
2.752
2.325
1.88
1.421
0.951
0.474
-0.008
-0.491
-0.972
-1.446
-1.912
-2.366
-2.805
-3.227
-3.63
-4.012
-4.37
-4.704
-5.011
-5.291
-5.542
-5.764
-5.954
-6.114
-6.243
-6.341
-6.408
-6.445
-6.452
-6.431
-6.381
-6.304
-6.202
-6.075
-5.925
-5.753
-5.562
-5.354
-5.13
-4.893
-4.644
-4.387
-4.122
-3.851
-3.577
-3.3
-3.023
-2.745
-2.469
-2.195
-1.925
-1.659
-1.399
-1.144
-0.896
-0.656
-0.423
-0.198
0.018
0.226
0.425
0.614
0.795
0.965
1.125
1.275
1.415
1.544
1.663
1.772
1.87
1.958
2.037
2.106
2.167
2.218
2.261
2.295
2.321
2.339
2.348
2.349
2.342
2.327
2.305
2.275
2.238
2.194
2.143
2.085
2.021
1.951
1.874
1.792
1.705
1.614
1.52
1.423
1.324
1.225
1.126
1.028
0.931
0.837
0.746
0.659
0.576
0.497
0.424
0.356
0.293
0.237
0.187
0.143
0.106
0.075
0.05
0.031
0.019
0.013
0.014
0.022
0.037
0.059
0.09
0.129
0.176
0.232
0.296
0.37
0.452
0.544
0.646
0.758
0.88
1.014
1.16
1.319
1.493
1.682
1.888
2.113
2.358
2.626
2.917
3.235
3.581
3.958
4.368
4.811
5.291
5.808
6.364
6.959
7.594
8.269
8.985
9.739
10.533
11.365
12.233
13.135
14.069
15.033
16.023
17.035
18.065
19.11
20.164
21.221
22.277
23.324
24.357
25.368
26.349
27.293
28.192
29.037
29.821
30.536
31.172
31.724
32.184
32.544
32.798
32.941
32.966
32.87
32.648
32.296
31.813
31.198
30.453
29.581
28.585
27.472
26.247
24.918
23.494
21.981
20.388
18.722
16.991
15.206
13.379
11.524
9.653
7.779
5.915
4.075
2.271
0.515
-1.186
-2.824
-4.389
-5.866
-7.232
-8.464
-9.542
-10.449
-11.176
-11.713
-12.054
-12.204
-12.179
-11.998
-11.684
-11.259
-10.734
-10.129
-9.468
-8.79
-8.15
-7.599
-7.18
-6.926
-6.854
-6.976
-7.292
-7.787
-8.426
-9.156
-9.904
-10.59
-11.139
-11.451
-11.438
-10.969
-9.837
-7.927
-5.231
-1.863
1.843
5.517
8.879
11.555
13.091
13.339
12.409
10.768
9.528
9.829
12.529
18.459
28.104
41.093
56.427
72.438
86.162
94.195
93.377
80.471
54.199
15.795
-33.421
-92.264
-161.472
-243.349
-335.677
-430.469
-514.45
-572.238
-595.545
-585.436
-549.766
-501.493
-452.106
-407.41
-370.584
-339.858
-309.454
-276.665
-239.657
-199.668
-162.427
-130.829
-105.995
-87.959
-74.348
-63.862
-56.014
-49.577
-43.676
-37.824
-31.557
-24.886
-18.074
-11.193
-4.511
1.301
5.689
8.429
9.503
9.203
7.946
6.048
3.902
2.014
0.729
0.246
0.642
1.84
3.737
6.261
9.303
12.732
16.436
20.305
24.243
28.164
31.948
35.446
38.505
40.994
42.835
43.99
44.464
44.29
43.525
42.257
40.572
38.546
36.245
33.735
31.076
28.341
25.618
23.006
20.614
18.553
16.902
15.715
15.013
14.784
14.992
15.576
16.481
17.662
19.087
20.731
22.573
24.592
26.758
29.041
31.393
33.758
36.087
38.344
40.513
42.599
44.625
46.627
48.641
50.691
52.796
54.963
57.194
59.487
61.838
64.239
66.693
69.21
71.8
74.471
77.22
80.037
82.905
85.799
88.695
91.572
94.412
97.203
99.936
102.606
105.211
107.751
110.224
112.626
114.949
117.187
119.333
121.384
123.336
125.189
126.94
128.587
130.13
131.565
132.887
134.091
135.17
136.118
136.926
137.588
138.099
138.453
138.645
138.672
138.528
138.211
137.716
137.041
136.182
135.137
133.904
132.48
130.866
129.062
127.068
124.886
122.519
119.97
117.243
114.343
111.276
108.049
104.669
101.146
97.487
93.704
89.808
85.809
81.719
77.552
73.319
69.034
64.71
60.359
55.997
51.635
47.287
42.967
38.687
34.461
30.301
26.218
22.225
18.333
14.552
10.893
7.363
3.971
0.725
-2.369
-5.305
-8.077
-10.683
-13.119
-15.383
-17.474
-19.393
-21.14
-22.718
-24.128
-25.375
-26.462
-27.393
-28.175
-28.812
-29.31
-29.677
-29.919
-30.044
-30.06
-29.975
-29.796
-29.533
-29.193
-28.784
-28.316
-27.795
-27.229
-26.627
-25.995
-25.341
-24.671
-23.993
-23.311
-22.632
-21.961
-21.302
-20.659
-20.036
-19.435
-18.86
-18.312
-17.794
-17.305
-16.849
-16.425
-16.034
-15.676
-15.35
-15.056
-14.793
-14.56
-14.355
-14.178
-14.026
-13.898
-13.792
-13.707
-13.641
-13.592
-13.559
-13.541
-13.534
-13.539
-13.554
-13.577
-13.608
-13.645
-13.69
-13.74
-13.796
-13.858
-13.926
-14.001
-14.083
-14.171
-14.268
-14.373
-14.488
-14.612
-14.748
-14.896
-15.057
-15.232
-15.422
-15.627
-15.85
-16.09
-16.348
-16.624
-16.919
-17.233
-17.566
-17.918
-18.288
-18.677
-19.083
-19.505
-19.944
-20.396
-20.861
-21.337
-21.822
-22.314
-22.811
-23.312
-23.814
-24.314
-24.81
-25.301
-25.784
-26.257
-26.717
-27.163
-27.593
-28.004
-28.395
-28.765
-29.111
-29.434
-29.732
-30.004
-30.251
-30.471
-30.665
-30.834
-30.979
-31.098
-31.195
-31.271
-31.326
-31.363
-31.383
-31.389
-31.384
-31.368
-31.344
-31.316
-31.284
-31.252
-31.221
-31.193
-31.17
-31.154
-31.146
-31.148
-31.161
-31.184
-31.22
-31.268
-31.328
-31.4
-31.483
-31.575
-31.675
-31.782
-31.892
-32.004
-32.115
-32.222
-32.321
-32.409
-32.483
-32.538
-32.571
-32.578
-32.554
-32.495
-32.399
-32.26
-32.075
-31.842
-31.557
-31.217
-30.821
-30.367
-29.852
-29.276
-28.638
-27.937
-27.174
-26.349
-25.462
-24.515
-23.511
-22.452
-21.341
-20.182
-18.979
-17.737
-16.461
-15.155
-13.826
-12.48
-11.122
-9.759
-8.397
-7.044
-5.707
-4.392
-3.107
-1.858
-0.652
0.506
1.608
2.65
3.626
4.532
5.362
6.114
6.781
7.361
7.849
8.243
8.539
8.735
8.829
8.819
8.705
8.49
8.174
7.762
7.257
6.664
5.988
5.234
4.408
3.513
2.555
1.539
0.472
-0.639
-1.783
-2.948
-4.123
-5.299
-6.468
-7.626
-8.77
-9.893
-10.99
-12.056
-13.08
-14.049
-14.942
-15.729
-16.386
-16.893
-17.238
-17.424
-17.452
-17.319
-17.022
-16.555
-15.923
-15.144
-14.227
-13.182
-12.025
-10.791
-9.553
-8.41
-7.449
-6.733
-6.293
-6.142
-6.321
-6.88
-7.879
-9.362
-11.286
-13.608
-16.343
-19.45
-22.836
-26.302
-29.393
-31.65
-32.877
-32.941
-31.803
-29.664
-26.63
-22.988
-19.584
-17.229
-16.394
-17.346
-19.797
-22.976
-26.462
-29.601
-31.006
-29.262
-23.054
-11.395
5.615
27.122
52.608
81.116
110.62
138.568
161.91
177.427
182.674
175.937
154.926
118.565
68.463
6.889
-63.16
-139.893
-224.898
-317.983
-414.258
-503.958
-572.886
-610.23
-612.644
-583.688
-531.889
-464.567
-387.892
-307.763
-231.946
-171.179
-131.359
-114.274
-115.206
-123.025
-132.821
-140.113
-141.094
-137.248
-124.727
-102.726
-76.609
-49.347
-26.375
-10.632
0.937
10.17
18.51
26.559
32.596
35.936
37.062
36.585
35.415
34.002
32.356
30.545
28.678
26.889
25.275
23.888
22.791
22.041
21.705
21.819
22.366
23.299
24.577
26.133
27.899
29.817
31.816
33.835
35.833
37.757
39.552
41.164
42.524
43.593
44.362
44.833
45.026
44.966
44.68
44.206
43.591
42.874
42.09
41.268
40.426
39.59
38.791
38.057
37.425
36.92
36.555
36.341
36.284
36.386
36.649
37.068
37.63
38.329
39.16
40.12
41.209
42.423
43.758
45.207
46.765
48.426
50.185
52.037
53.978
56.002
58.107
60.288
62.545
64.873
67.27
69.731
72.251
74.823
77.445
80.11
82.811
85.542
88.299
91.074
93.863
96.659
99.455
102.246
105.024
107.784
110.518
113.218
115.877
118.487
121.041
123.53
125.946
128.281
130.525
132.671
134.709
136.631
138.428
140.091
141.61
142.977
144.184
145.221
146.083
146.759
147.245
147.534
147.621
147.5
147.168
146.622
145.86
144.879
143.679
142.262
140.627
138.777
136.716
134.447
131.976
129.309
126.452
123.413
120.2
116.824
113.293
109.618
105.811
101.884
97.848
93.717
89.504
85.223
80.887
76.51
72.108
67.693
63.281
58.883
54.514
50.187
45.914
41.706
37.576
33.533
29.587
25.748
22.024
18.422
14.949
11.611
8.412
5.357
2.449
-0.31
-2.917
-5.372
-7.675
-9.825
-11.823
-13.672
-15.374
-16.931
-18.347
-19.626
-20.773
-21.792
-22.689
-23.47
-24.14
-24.705
-25.172
-25.547
-25.837
-26.047
-26.184
-26.253
-26.262
-26.214
-26.117
-25.973
-25.789
-25.568
-25.315
-25.032
-24.723
-24.39
-24.037
-23.665
-23.277
-22.873
-22.457
-22.028
-21.589
-21.14
-20.681
-20.214
-19.74
-19.258
-18.768
-18.272
-17.769
-17.26
-16.745
-16.224
-15.696
-15.163
-14.625
-14.081
-13.533
-12.981
-12.425
-11.868
-11.31
-10.752
-10.197
-9.646
-9.102
-8.568
-8.044
-7.535
-7.044
-6.572
-6.123
-5.699
-5.304
-4.939
-4.608
-4.312
-4.054
-3.834
-3.654
-3.516
-3.42
-3.366
-3.356
-3.389
-3.464
-3.582
-3.742
-3.943
-4.183
-4.462
-4.779
-5.13
-5.514
-5.929
-6.373
-6.841
-7.333
-7.843
-8.369
-8.907
-9.454
-10.005
-10.557
-11.105
-11.646
-12.177
-12.693
-13.193
-13.673
-14.132
-14.566
-14.975
-15.358
-15.713
-16.041
-16.342
-16.614
-16.86
-17.081
-17.276
-17.448
-17.598
-17.727
-17.838
-17.932
-18.011
-18.077
-18.132
-18.178
-18.218
-18.254
-18.288
-18.324
-18.362
-18.407
-18.46
-18.525
-18.602
-18.695
-18.804
-18.931
-19.077
-19.242
-19.426
-19.63
-19.853
-20.093
-20.349
-20.62
-20.902
-21.195
-21.495
-21.799
-22.104
-22.407
-22.706
-22.996
-23.276
-23.543
-23.793
-24.024
-24.233
-24.418
-24.576
-24.704
-24.799
-24.859
-24.881
-24.863
-24.803
-24.699
-24.549
-24.352
-24.106
-23.811
-23.467
-23.071
-22.626
-22.13
-21.585
-20.991
-20.349
-19.663
-18.932
-18.16
-17.349
-16.501
-15.619
-14.705
-13.76
-12.786
-11.787
-10.762
-9.715
-8.647
-7.56
-6.456
-5.338
-4.208
-3.069
-1.922
-0.769
0.386
1.542
2.697
3.848
4.995
6.133
7.261
8.375
9.473
10.553
11.612
12.647
13.657
14.64
15.592
16.513
17.399
18.248
19.057
19.822
20.538
21.203
21.811
22.358
22.84
23.251
23.589
23.85
24.03
24.127
24.139
24.065
23.904
23.655
23.315
22.885
22.363
21.749
21.044
20.246
19.358
18.382
17.324
16.193
14.994
13.731
12.407
11.022
9.581
8.091
6.559
4.99
3.393
1.787
0.195
-1.348
-2.812
-4.184
-5.46
-6.64
-7.719
-8.685
-9.528
-10.249
-10.852
-11.343
-11.716
-11.965
-12.094
-12.139
-12.167
-12.27
-12.52
-12.953
-13.577
-14.391
-15.413
-16.69
-18.253
-20.092
-22.159
-24.393
-26.792
-29.43
-32.282
-35.149
-37.674
-39.436
-40.206
-40.048
-39.018
-36.97
-33.851
-29.845
-25.581
-22.016
-19.68
-18.418
-17.814
-17.676
-17.899
-18.209
-17.562
-14.284
-7.267
3.723
18.211
35.57
55.413
77.267
99.301
118.632
132.998
139.404
135.582
121.337
94.84
57.771
15.413
-31.961
-83.491
-142.855
-219.315
-310.059
-406.289
-492.391
-545.771
-558.626
-533.895
-482.84
-425.533
-373.05
-328.757
-292.225
-257.757
-223.555
-191.926
-165.047
-145.358
-133
-125.58
-120.454
-115.399
-108.981
-100.378
-89.207
-75.522
-59.795
-43.001
-26.432
-11.249
1.819
12.303
20.029
25.097
27.713
28.255
27.276
25.323
22.789
19.975
17.071
14.194
11.488
9.08
7.058
5.475
4.363
3.741
3.622
4.005
4.862
6.141
7.768
9.67
11.775
14.009
16.305
18.593
20.795
22.838
24.646
26.165
27.368
28.248
28.811
29.073
29.056
28.793
28.329
27.703
26.956
26.119
25.223
24.298
23.379
22.505
21.712
21.03
20.475
20.061
19.795
19.682
19.724
19.916
20.251
20.722
21.325
22.058
22.921
23.911
25.024
26.254
27.596
29.044
30.596
32.248
33.994
35.831
37.756
39.765
41.859
44.032
46.28
48.598
50.98
53.42
55.913
58.45
61.027
63.635
66.268
68.921
71.586
74.258
76.931
79.597
82.251
84.886
87.497
90.076
92.616
95.112
97.557
99.945
102.268
104.521
106.697
108.789
110.79
112.693
114.492
116.18
117.749
119.192
120.504
121.677
122.707
123.586
124.311
124.876
125.279
125.514
125.579
125.473
125.191
124.735
124.102
123.292
122.306
121.144
119.809
118.302
116.627
114.785
112.782
110.622
108.309
105.848
103.247
100.512
97.65
94.67
91.581
88.391
85.112
81.753
78.325
74.839
71.307
67.739
64.147
60.541
56.932
53.331
49.747
46.19
42.669
39.194
35.772
32.412
29.12
25.905
22.771
19.725
16.774
13.921
11.171
8.53
6.001
3.588
1.293
-0.882
-2.935
-4.864
-6.672
-8.357
-9.922
-11.368
-12.699
-13.917
-15.026
-16.03
-16.933
-17.74
-18.454
-19.082
-19.627
-20.093
-20.486
-20.811
-21.07
-21.268
-21.409
-21.496
-21.534
-21.525
-21.474
-21.383
-21.257
-21.099
-20.914
-20.704
-20.474
-20.227
-19.967
-19.695
-19.415
-19.129
-18.839
-18.547
-18.254
-17.962
-17.671
-17.383
-17.098
-16.817
-16.539
-16.266
-15.997
-15.734
-15.476
-15.225
-14.981
-14.747
-14.524
-14.313
-14.116
-13.935
-13.772
-13.628
-13.505
-13.404
-13.325
-13.271
-13.241
-13.236
-13.258
-13.306
-13.38
-13.482
-13.611
-13.767
-13.951
-14.162
-14.4
-14.665
-14.956
-15.275
-15.62
-15.992
-16.39
-16.813
-17.261
-17.731
-18.222
-18.731
-19.256
-19.793
-20.34
-20.893
-21.448
-22.002
-22.551
-23.092
-23.621
-24.134
-24.628
-25.1
-25.547
-25.965
-26.351
-26.705
-27.023
-27.305
-27.548
-27.753
-27.917
-28.04
-28.122
-28.162
-28.159
-28.112
-28.023
-27.891
-27.717
-27.502
-27.248
-26.958
-26.633
-26.278
-25.894
-25.485
-25.055
-24.609
-24.15
-23.683
-23.212
-22.742
-22.279
-21.826
-21.389
-20.971
-20.577
-20.209
-19.871
-19.564
-19.292
-19.056
-18.856
-18.696
-18.575
-18.495
-18.455
-18.458
-18.502
-18.588
-18.714
-18.879
-19.082
-19.321
-19.594
-19.898
-20.23
-20.589
-20.969
-21.368
-21.781
-22.203
-22.631
-23.058
-23.48
-23.891
-24.286
-24.661
-25.011
-25.332
-25.621
-25.874
-26.089
-26.264
-26.395
-26.482
-26.523
-26.517
-26.463
-26.361
-26.211
-26.013
-25.768
-25.478
-25.144
-24.767
-24.349
-23.893
-23.4
-22.874
-22.318
-21.734
-21.127
-20.502
-19.862
-19.213
-18.561
-17.91
-17.265
-16.631
-16.014
-15.417
-14.845
-14.302
-13.791
-13.316
-12.88
-12.484
-12.131
-11.822
-11.559
-11.34
-11.167
-11.038
-10.952
-10.907
-10.903
-10.936
-11.005
-11.107
-11.24
-11.398
-11.58
-11.78
-11.993
-12.214
-12.438
-12.658
-12.869
-13.065
-13.24
-13.387
-13.5
-13.574
-13.602
-13.579
-13.499
-13.357
-13.148
-12.867
-12.512
-12.08
-11.569
-10.978
-10.307
-9.557
-8.728
-7.822
-6.841
-5.789
-4.667
-3.48
-2.232
-0.929
0.423
1.818
3.246
4.702
6.176
7.66
9.144
10.619
12.077
13.507
14.899
16.243
17.529
18.745
19.88
20.924
21.864
22.692
23.398
23.974
24.413
24.71
24.86
24.86
24.71
24.409
23.956
23.351
22.593
21.682
20.621
19.415
18.067
16.582
14.969
13.238
11.401
9.471
7.459
5.371
3.211
0.987
-1.285
-3.591
-5.911
-8.226
-10.514
-12.745
-14.881
-16.887
-18.736
-20.419
-21.935
-23.28
-24.447
-25.419
-26.182
-26.736
-27.091
-27.254
-27.234
-27.043
-26.713
-26.309
-25.916
-25.615
-25.461
-25.477
-25.675
-26.071
-26.687
-27.547
-28.658
-29.998
-31.53
-33.222
-35.049
-36.973
-38.92
-40.773
-42.373
-43.559
-44.205
-44.215
-43.493
-41.961
-39.511
-35.982
-31.324
-25.624
-19.095
-12.126
-5.094
1.732
7.973
13.112
16.847
19.174
20.543
22.029
24.657
29.081
35.907
45.592
58.023
72.411
87.04
99.106
105.766
104.518
92.828
68.645
30.855
-19.582
-79.514
-145.063
-212.836
-281.945
-352.517
-422.002
-485.019
-532.75
-555.756
-549.312
-513.278
-453.253
-379.507
-303.11
-236.046
-186.627
-156.849
-143.507
-137.875
-131.884
-121.769
-107.759
-93.671
-82.197
-73.373
-65.532
-56.112
-44.068
-29.989
-14.95
-0.349
12.749
23.882
32.644
38.836
42.565
44.017
43.504
41.444
38.294
34.42
30.114
25.611
21.043
16.541
12.256
8.288
4.705
1.586
-1.017
-3.077
-4.548
-5.412
-5.658
-5.247
-4.175
-2.468
-0.16
2.673
5.945
9.573
13.441
17.431
21.434
25.336
29.067
32.588
35.863
38.87
41.58
43.939
45.913
47.493
48.672
49.47
49.911
50.022
49.86
49.496
49.004
48.467
47.943
47.461
47.052
46.736
46.534
46.479
46.594
46.883
47.359
48.025
48.885
49.942
51.184
52.587
54.127
55.77
57.491
59.277
61.118
63.001
64.928
66.894
68.888
70.922
73.009
75.155
77.371
79.66
81.987
84.336
86.72
89.102
91.425
93.669
95.786
97.743
99.63
101.517
103.365
105.309
107.63
110.286
113.171
116.4
119.558
122.983
128.335
135.178
141.933
146.15
142.26
129.085
111.887
97.415
95.583
111.624
138.684
166.307
183.507
182.153
166.613
146.984
130.983
125.038
128.237
134.384
140.19
143.361
143.495
142.826
142.098
141.162
140.141
138.703
136.749
134.591
132.334
129.959
127.526
125.065
122.55
119.968
117.304
114.512
111.589
108.565
105.451
102.253
98.984
95.653
92.273
88.863
85.432
81.991
78.547
75.114
71.7
68.317
64.977
61.688
58.461
55.304
52.225
49.233
46.333
43.534
40.839
38.255
35.786
33.436
31.208
29.105
27.128
25.278
23.556
21.962
20.493
19.148
17.924
16.818
15.827
14.945
14.169
13.492
12.91
12.415
12.002
11.663
11.391
11.179
11.019
10.905
10.828
10.781
10.759
10.753
10.757
10.766
10.774
10.774
10.762
10.734
10.684
10.609
10.505
10.371
10.202
9.999
9.76
9.483
9.17
8.819
8.431
8.008
7.549
7.058
6.536
5.985
5.408
4.808
4.189
3.553
2.905
2.247
1.584
0.919
0.256
-0.402
-1.053
-1.692
-2.316
-2.923
-3.509
-4.072
-4.61
-5.121
-5.602
-6.053
-6.472
-6.859
-7.213
-7.534
-7.821
-8.076
-8.297
-8.487
-8.644
-8.771
-8.869
-8.939
-8.982
-9.001
-8.997
-8.973
-8.931
-8.873
-8.802
-8.719
-8.627
-8.528
-8.425
-8.319
-8.213
-8.109
-8.01
-7.917
-7.833
-7.761
-7.701
-7.656
-7.627
-7.617
-7.625
-7.655
-7.706
-7.781
-7.881
-8.008
-8.161
-8.343
-8.554
-8.794
-9.064
-9.364
-9.694
-10.053
-10.442
-10.858
-11.303
-11.774
-12.272
-12.795
-13.341
-13.91
-14.5
-15.109
-15.735
-16.376
-17.03
-17.694
-18.366
-19.045
-19.726
-20.408
-21.088
-21.762
-22.428
-23.082
-23.722
-24.343
-24.942
-25.516
-26.062
-26.577
-27.059
-27.504
-27.911
-28.279
-28.604
-28.887
-29.126
-29.32
-29.469
-29.573
-29.631
-29.645
-29.614
-29.541
-29.426
-29.271
-29.078
-28.849
-28.586
-28.292
-27.969
-27.62
-27.248
-26.857
-26.45
-26.031
-25.605
-25.175
-24.746
-24.322
-23.907
-23.506
-23.122
-22.758
-22.419
-22.105
-21.821
-21.568
-21.349
-21.164
-21.014
-20.901
-20.823
-20.782
-20.775
-20.802
-20.862
-20.953
-21.072
-21.219
-21.391
-21.585
-21.799
-22.031
-22.277
-22.535
-22.8
-23.069
-23.339
-23.605
-23.864
-24.111
-24.343
-24.555
-24.745
-24.91
-25.045
-25.148
-25.218
-25.252
-25.25
-25.209
-25.131
-25.015
-24.862
-24.673
-24.451
-24.196
-23.913
-23.602
-23.268
-22.913
-22.54
-22.152
-21.753
-21.346
-20.935
-20.524
-20.115
-19.713
-19.323
-18.947
-18.59
-18.256
-17.949
-17.672
-17.429
-17.223
-17.057
-16.933
-16.852
-16.818
-16.829
-16.887
-16.99
-17.139
-17.33
-17.563
-17.833
-18.137
-18.473
-18.835
-19.219
-19.621
-20.035
-20.458
-20.884
-21.308
-21.724
-22.128
-22.514
-22.877
-23.21
-23.509
-23.767
-23.979
-24.141
-24.245
-24.288
-24.265
-24.171
-24.002
-23.757
-23.431
-23.022
-22.53
-21.954
-21.293
-20.548
-19.722
-18.816
-17.833
-16.777
-15.651
-14.459
-13.207
-11.898
-10.538
-9.132
-7.684
-6.202
-4.689
-3.152
-1.598
-0.033
1.536
3.102
4.658
6.197
7.71
9.192
10.636
12.034
13.38
14.67
15.897
17.055
18.141
19.15
20.079
20.925
21.685
22.359
22.944
23.441
23.849
24.167
24.396
24.536
24.586
24.546
24.415
24.192
23.878
23.472
22.976
22.39
21.719
20.963
20.128
19.219
18.239
17.196
16.093
14.932
13.717
12.452
11.14
9.785
8.393
6.965
5.507
4.027
2.533
1.029
-0.482
-2.003
-3.535
-5.07
-6.601
-8.118
-9.609
-11.062
-12.459
-13.771
-14.977
-16.053
-16.988
-17.79
-18.461
-18.999
-19.402
-19.655
-19.757
-19.724
-19.568
-19.3
-18.94
-18.503
-18.035
-17.609
-17.292
-17.142
-17.2
-17.469
-17.96
-18.69
-19.673
-20.931
-22.459
-24.224
-26.196
-28.346
-30.634
-33.018
-35.419
-37.714
-39.779
-41.482
-42.7
-43.343
-43.308
-42.507
-40.832
-38.114
-34.299
-29.484
-23.873
-17.87
-11.872
-6.126
-0.98
3.086
5.884
7.525
8.517
10.036
13.159
18.51
26.671
37.995
52.151
68.194
84.287
97.41
104.542
103.153
90.834
65.87
27.672
-23.251
-84.929
-153.874
-226.151
-297.593
-363.597
-419.952
-463.246
-491.163
-502.859
-498.627
-479.415
-447.256
-405.265
-356.982
-306.171
-256.063
-209.091
-167.563
-133.391
-107.324
-89.176
-77.999
-72.072
-69.861
-69.986
-70.586
-70.072
-67.593
-62.718
-55.617
-46.986
-37.379
-27.457
-18.259
-10.513
-4.563
-0.562
1.703
2.599
2.403
1.533
0.539
-0.207
-0.485
-0.189
0.618
1.873
3.55
5.573
7.843
10.278
12.805
15.373
17.964
20.545
23.059
25.433
27.586
29.443
30.961
32.12
32.915
33.35
33.435
33.197
32.671
31.901
30.928
29.79
28.52
27.153
25.726
24.283
22.873
21.541
20.322
19.241
18.319
17.572
17.012
16.646
16.477
16.498
16.71
17.111
17.702
18.482
19.45
20.6
21.927
23.423
25.082
26.898
28.863
30.968
33.205
35.567
38.044
40.63
43.315
46.088
48.939
51.856
54.827
57.841
60.887
63.951
67.023
70.092
73.148
76.182
79.185
82.147
85.063
87.924
90.724
93.457
96.118
98.701
101.202
103.617
105.942
108.173
110.306
112.339
114.27
116.094
117.812
119.419
120.916
122.299
123.568
124.721
125.757
126.675
127.473
128.151
128.708
129.142
129.455
129.644
129.709
129.649
129.463
129.152
128.712
128.145
127.449
126.624
125.67
124.587
123.376
122.037
120.572
118.983
117.275
115.448
113.503
111.441
109.264
106.977
104.588
102.101
99.511
96.829
94.078
91.277
88.446
85.593
82.698
79.767
76.833
73.882
70.866
67.747
64.483
61.079
57.618
54.126
50.53
46.928
43.613
40.64
37.937
35.547
33.153
31.388
32.028
34.594
37.504
37.988
30.981
17.072
1.278
-11.304
-13.45
-5.078
7.06
17.772
21.333
17.045
9.975
3.137
-1.298
-2.808
-3.472
-4.166
-4.839
-5.556
-6.001
-6.116
-6.184
-6.282
-6.367
-6.452
-6.551
-6.656
-6.758
-6.833
-6.837
-6.759
-6.624
-6.441
-6.21
-5.935
-5.614
-5.254
-4.862
-4.443
-3.997
-3.525
-3.029
-2.514
-1.982
-1.436
-0.88
-0.318
0.249
0.815
1.379
1.935
2.482
3.014
3.529
4.023
4.493
4.935
5.347
5.726
6.068
6.372
6.635
6.857
7.034
7.167
7.256
7.298
7.296
7.249
7.158
7.025
6.852
6.641
6.394
6.115
5.806
5.471
5.113
4.738
4.35
3.952
3.551
3.149
2.753
2.367
1.995
1.642
1.312
1.009
0.735
0.495
0.291
0.125
-0
-0.085
-0.127
-0.128
-0.087
-0.006
0.113
0.268
0.457
0.676
0.922
1.191
1.478
1.779
2.09
2.405
2.718
3.026
3.321
3.599
3.855
4.081
4.275
4.431
4.545
4.612
4.63
4.595
4.506
4.359
4.154
3.891
3.568
3.187
2.749
2.257
1.712
1.118
0.48
-0.198
-0.912
-1.657
-2.427
-3.218
-4.024
-4.838
-5.657
-6.473
-7.282
-8.077
-8.853
-9.604
-10.327
-11.015
-11.664
-12.271
-12.833
-13.347
-13.81
-14.22
-14.578
-14.881
-15.13
-15.325
-15.468
-15.561
-15.606
-15.605
-15.564
-15.485
-15.374
-15.234
-15.07
-14.887
-14.69
-14.483
-14.269
-14.054
-13.842
-13.636
-13.44
-13.258
-13.092
-12.947
-12.825
-12.728
-12.657
-12.615
-12.602
-12.619
-12.666
-12.743
-12.849
-12.983
-13.144
-13.33
-13.539
-13.767
-14.013
-14.271
-14.539
-14.813
-15.089
-15.362
-15.63
-15.888
-16.135
-16.366
-16.58
-16.775
-16.948
-17.098
-17.223
-17.324
-17.398
-17.445
-17.466
-17.461
-17.43
-17.373
-17.293
-17.189
-17.065
-16.92
-16.758
-16.58
-16.389
-16.187
-15.978
-15.765
-15.551
-15.34
-15.135
-14.94
-14.759
-14.595
-14.451
-14.33
-14.234
-14.166
-14.127
-14.118
-14.14
-14.195
-14.281
-14.4
-14.551
-14.733
-14.945
-15.186
-15.456
-15.751
-16.072
-16.415
-16.779
-17.161
-17.56
-17.972
-18.395
-18.825
-19.26
-19.695
-20.127
-20.552
-20.965
-21.363
-21.74
-22.094
-22.42
-22.714
-22.972
-23.192
-23.368
-23.5
-23.582
-23.614
-23.593
-23.517
-23.384
-23.193
-22.943
-22.633
-22.262
-21.83
-21.336
-20.781
-20.165
-19.488
-18.752
-17.956
-17.103
-16.195
-15.234
-14.223
-13.165
-12.064
-10.924
-9.749
-8.544
-7.314
-6.065
-4.801
-3.529
-2.255
-0.985
0.275
1.517
2.737
3.926
5.078
6.186
7.245
8.247
9.187
10.059
10.856
11.573
12.204
12.744
13.187
13.53
13.765
13.889
13.896
13.784
13.551
13.195
12.715
12.112
11.389
10.55
9.599
8.539
7.374
6.107
4.746
3.298
1.773
0.182
-1.464
-3.156
-4.879
-6.619
-8.366
-10.109
-11.848
-13.581
-15.304
-17.006
-18.676
-20.296
-21.853
-23.331
-24.712
-25.979
-27.116
-28.111
-28.958
-29.656
-30.199
-30.582
-30.792
-30.807
-30.613
-30.214
-29.633
-28.905
-28.069
-27.163
-26.214
-25.271
-24.393
-23.643
-23.096
-22.81
-22.786
-23.036
-23.62
-24.547
-25.78
-27.186
-28.424
-29.149
-29.245
-28.634
-27.293
-25.406
-23.085
-20.579
-18.631
-17.966
-18.92
-21.648
-25.837
-30.648
-35.558
-39.96
-42.58
-42.085
-37.321
-27.356
-12.176
7.365
30.716
57.211
85.342
112.946
137.262
155.396
164.995
164.377
151.657
124.717
83.353
29.969
-32.492
-100.591
-173.74
-254.955
-342.926
-432.318
-512.584
-568.438
-591.864
-581.297
-540.432
-480.133
-408.85
-334.624
-268.162
-215.468
-180.354
-162.357
-152.877
-144.442
-133.091
-118.058
-103.684
-93.165
-86.139
-80.829
-74.422
-65.429
-54.246
-41.86
-29.369
-17.574
-7.228
1.034
6.942
10.458
11.848
11.574
9.999
7.54
4.759
2.089
-0.151
-1.748
-2.682
-2.962
-2.565
-1.519
0.116
2.284
4.902
7.887
11.18
14.701
18.367
22.084
25.736
29.21
32.398
35.223
37.641
39.628
41.17
42.263
42.92
43.168
43.05
42.612
41.895
40.941
39.787
38.481
37.077
35.626
34.18
32.779
31.448
30.21
29.082
28.079
27.21
26.476
25.875
25.406
25.073
24.879
24.828
24.921
25.157
25.533
26.051
26.707
27.504
28.439
29.511
30.721
32.066
33.546
35.161
36.908
38.783
40.781
42.896
45.122
47.453
49.882
52.402
55.005
57.685
60.434
63.245
66.111
69.026
71.98
74.968
77.981
81.012
84.053
87.096
90.133
93.155
96.156
99.125
102.055
104.938
107.763
110.524
113.212
115.818
118.335
120.754
123.067
125.265
127.342
129.289
131.097
132.76
134.27
135.619
136.801
137.81
138.638
139.28
139.73
139.984
140.037
139.884
139.523
138.951
138.166
137.168
135.956
134.533
132.899
131.057
129.011
126.766
124.325
121.696
118.885
115.899
112.746
109.436
105.978
102.382
98.66
94.824
90.886
86.859
82.756
78.591
74.377
70.129
65.86
61.585
57.317
53.071
48.86
44.696
40.594
36.564
32.618
28.768
25.022
21.39
17.882
14.503
11.262
8.164
5.216
2.422
-0.214
-2.689
-5
-7.145
-9.126
-10.941
-12.593
-14.084
-15.417
-16.595
-17.623
-18.507
-19.252
-19.865
-20.351
-20.719
-20.977
-21.13
-21.189
-21.159
-21.05
-20.867
-20.62
-20.313
-19.955
-19.552
-19.109
-18.633
-18.129
-17.604
-17.063
-16.511
-15.953
-15.394
-14.838
-14.288
-13.749
-13.223
-12.713
-12.22
-11.747
-11.295
-10.864
-10.454
-10.066
-9.699
-9.351
-9.023
-8.712
-8.417
-8.136
-7.869
-7.613
-7.368
-7.134
-6.909
-6.692
-6.485
-6.286
-6.094
-5.91
-5.734
-5.563
-5.399
-5.24
-5.086
-4.935
-4.789
-4.645
-4.504
-4.365
-4.227
-4.092
-3.957
-3.824
-3.694
-3.566
-3.441
-3.322
-3.208
-3.102
-3.005
-2.919
-2.843
-2.779
-2.729
-2.691
-2.667
-2.657
-2.66
-2.676
-2.706
-2.749
-2.806
-2.876
-2.959
-3.057
-3.169
-3.295
-3.437
-3.594
-3.769
-3.961
-4.171
-4.4
-4.649
-4.919
-5.209
-5.519
-5.85
-6.2
-6.568
-6.954
-7.356
-7.773
-8.204
-8.647
-9.101
-9.565
-10.038
-10.518
-11.004
-11.494
-11.988
-12.483
-12.979
-13.474
-13.965
-14.451
-14.931
-15.401
-15.861
-16.307
-16.737
-17.149
-17.54
-17.908
-18.249
-18.563
-18.847
-19.1
-19.32
-19.507
-19.66
-19.779
-19.864
-19.915
-19.933
-19.92
-19.876
-19.802
-19.701
-19.574
-19.424
-19.252
-19.061
-18.854
-18.633
-18.401
-18.161
-17.915
-17.666
-17.418
-17.174
-16.935
-16.707
-16.49
-16.289
-16.106
-15.944
-15.805
-15.691
-15.604
-15.545
-15.516
-15.516
-15.547
-15.608
-15.699
-15.819
-15.967
-16.14
-16.338
-16.558
-16.797
-17.052
-17.32
-17.597
-17.881
-18.168
-18.454
-18.736
-19.01
-19.273
-19.522
-19.752
-19.963
-20.149
-20.309
-20.441
-20.543
-20.612
-20.648
-20.649
-20.615
-20.545
-20.439
-20.298
-20.123
-19.913
-19.671
-19.398
-19.096
-18.768
-18.416
-18.044
-17.655
-17.251
-16.838
-16.418
-15.996
-15.576
-15.16
-14.754
-14.36
-13.983
-13.625
-13.289
-12.978
-12.695
-12.442
-12.219
-12.028
-11.87
-11.745
-11.653
-11.593
-11.564
-11.566
-11.597
-11.656
-11.741
-11.849
-11.979
-12.128
-12.292
-12.468
-12.655
-12.847
-13.042
-13.237
-13.428
-13.611
-13.783
-13.941
-14.081
-14.2
-14.296
-14.365
-14.405
-14.413
-14.388
-14.329
-14.234
-14.104
-13.937
-13.734
-13.495
-13.222
-12.915
-12.576
-12.205
-11.805
-11.378
-10.926
-10.45
-9.954
-9.44
-8.909
-8.366
-7.812
-7.25
-6.682
-6.11
-5.539
-4.968
-4.403
-3.844
-3.295
-2.758
-2.235
-1.73
-1.243
-0.776
-0.332
0.089
0.484
0.854
1.196
1.51
1.795
2.051
2.276
2.472
2.636
2.77
2.872
2.944
2.984
2.993
2.971
2.917
2.831
2.714
2.564
2.382
2.168
1.923
1.646
1.339
1.003
0.637
0.244
-0.175
-0.619
-1.088
-1.577
-2.087
-2.614
-3.156
-3.709
-4.272
-4.841
-5.412
-5.982
-6.548
-7.106
-7.651
-8.181
-8.691
-9.176
-9.631
-10.052
-10.434
-10.773
-11.063
-11.299
-11.478
-11.594
-11.645
-11.626
-11.533
-11.363
-11.114
-10.782
-10.365
-9.861
-9.269
-8.589
-7.82
-6.964
-6.023
-4.998
-3.892
-2.71
-1.454
-0.13
1.258
2.704
4.202
5.746
7.328
8.941
10.575
12.223
13.875
15.523
17.157
18.767
20.344
21.88
23.366
24.792
26.149
27.427
28.618
29.714
30.704
31.581
32.337
32.964
33.459
33.816
34.033
34.108
34.04
33.83
33.481
32.995
32.373
31.618
30.734
29.726
28.602
27.368
26.032
24.602
23.088
21.503
19.86
18.166
16.429
14.653
12.846
11.02
9.189
7.366
5.568
3.813
2.126
0.541
-0.91
-2.21
-3.348
-4.317
-5.111
-5.714
-6.113
-6.305
-6.297
-6.1
-5.726
-5.185
-4.502
-3.728
-2.937
-2.22
-1.66
-1.311
-1.216
-1.417
-1.953
-2.868
-4.182
-5.868
-7.884
-10.194
-12.766
-15.583
-18.58
-21.616
-24.515
-27.073
-29.105
-30.485
-31.051
-30.586
-28.937
-26.043
-22.014
-17.187
-11.901
-6.382
-0.914
4.146
8.53
12.101
15.15
18.45
22.778
28.722
36.769
47.299
60.418
75.729
91.842
106.514
117.356
121.96
117.908
102.9
74.998
33.943
-18.078
-78.144
-143.946
-215.44
-293.608
-376.183
-456.142
-521.244
-559.625
-565.879
-542.195
-498.559
-446.07
-391.68
-338.101
-284.318
-229.694
-176.275
-127.968
-88.705
-60.158
-42.005
-32.64
-29.6
-31
-34.867
-38.608
-40.642
-40.091
-36.257
-29.586
-21.091
-11.352
-1.61
7.285
16.403
25.248
32.028
34.362
27.691
11.672
-8.51
-25.692
-31.551
-22.927
-4.391
15.471
28.713
31.156
24.17
14.484
7.15
4.865
8.691
15.154
21.853
28.051
32.492
36.012
39.334
42.115
44.525
46.473
47.721
48.439
48.789
48.799
48.552
48.117
47.501
46.723
45.827
44.84
43.789
42.733
41.712
40.744
39.85
39.046
38.339
37.737
37.242
36.847
36.55
36.353
36.259
36.271
36.391
36.619
36.953
37.395
37.944
38.601
39.369
40.247
41.238
42.342
43.559
44.893
46.34
47.899
49.567
51.339
53.21
55.175
57.229
59.366
61.578
63.861
66.206
68.609
71.061
73.557
76.089
78.649
81.231
83.826
86.426
89.023
91.608
94.173
96.706
99.2
101.645
104.03
106.347
108.586
110.738
112.795
114.747
116.587
118.308
119.9
121.359
122.677
123.847
124.865
125.725
126.424
126.956
127.318
127.507
127.52
127.355
127.011
126.487
125.781
124.893
123.826
122.581
121.159
119.566
117.804
115.88
113.799
111.568
109.194
106.685
104.049
101.296
98.433
95.471
92.419
89.286
86.084
82.822
79.509
76.157
72.775
69.372
65.958
62.543
59.135
55.743
52.377
49.043
45.751
42.508
39.321
36.197
33.143
30.164
27.265
24.452
21.727
19.094
16.556
14.113
11.769
9.523
7.375
5.327
3.376
1.522
-0.236
-1.9
-3.473
-4.956
-6.352
-7.663
-8.893
-10.043
-11.116
-12.116
-13.044
-13.902
-14.694
-15.423
-16.09
-16.699
-17.251
-17.75
-18.198
-18.596
-18.947
-19.253
-19.515
-19.736
-19.915
-20.055
-20.157
-20.221
-20.25
-20.243
-20.201
-20.124
-20.014
-19.871
-19.694
-19.484
-19.242
-18.969
-18.664
-18.329
-17.965
-17.573
-17.154
-16.711
-16.243
-15.754
-15.244
-14.717
-14.172
-13.614
-13.044
-12.464
-11.877
-11.285
-10.69
-10.096
-9.503
-8.916
-8.334
-7.762
-7.201
-6.653
-6.121
-5.608
-5.115
-4.646
-4.202
-3.787
-3.401
-3.048
-2.73
-2.447
-2.203
-1.998
-1.833
-1.711
-1.631
-1.595
-1.603
-1.656
-1.754
-1.897
-2.084
-2.315
-2.589
-2.906
-3.265
-3.666
-4.107
-4.588
-5.107
-5.664
-6.257
-6.886
-7.547
-8.24
-8.962
-9.711
-10.484
-11.278
-12.091
-12.92
-13.762
-14.613
-15.47
-16.33
-17.189
-18.044
-18.891
-19.727
-20.549
-21.353
-22.136
-22.897
-23.631
-24.338
-25.014
-25.657
-26.265
-26.837
-27.37
-27.862
-28.313
-28.719
-29.082
-29.398
-29.668
-29.893
-30.071
-30.203
-30.29
-30.333
-30.333
-30.292
-30.212
-30.095
-29.944
-29.761
-29.549
-29.312
-29.051
-28.771
-28.475
-28.165
-27.844
-27.515
-27.179
-26.841
-26.501
-26.162
-25.825
-25.493
-25.166
-24.848
-24.538
-24.238
-23.949
-23.671
-23.406
-23.154
-22.915
-22.689
-22.475
-22.273
-22.082
-21.901
-21.729
-21.566
-21.408
-21.256
-21.106
-20.958
-20.811
-20.661
-20.509
-20.352
-20.19
-20.021
-19.846
-19.663
-19.473
-19.275
-19.07
-18.858
-18.64
-18.416
-18.187
-17.953
-17.715
-17.474
-17.23
-16.985
-16.739
-16.493
-16.248
-16.004
-15.764
-15.527
-15.294
-15.067
-14.845
-14.628
-14.419
-14.216
-14.02
-13.832
-13.651
-13.477
-13.309
-13.148
-12.991
-12.839
-12.689
-12.541
-12.392
-12.242
-12.089
-11.933
-11.77
-11.602
-11.427
-11.244
-11.053
-10.854
-10.647
-10.43
-10.206
-9.975
-9.737
-9.493
-9.246
-8.995
-8.744
-8.493
-8.245
-8.001
-7.763
-7.532
-7.312
-7.104
-6.91
-6.732
-6.573
-6.434
-6.317
-6.225
-6.158
-6.117
-6.104
-6.119
-6.161
-6.229
-6.322
-6.439
-6.578
-6.736
-6.911
-7.099
-7.295
-7.497
-7.7
-7.897
-8.083
-8.252
-8.396
-8.511
-8.591
-8.63
-8.621
-8.56
-8.44
-8.258
-8.01
-7.691
-7.293
-6.812
-6.241
-5.58
-4.834
-4
-3.08
-2.076
-0.989
0.173
1.403
2.703
4.07
5.506
7.01
8.571
10.177
11.818
13.48
15.16
16.857
18.559
20.255
21.942
23.612
25.268
26.912
28.518
30.061
31.522
32.875
34.112
35.227
36.207
37.043
37.721
38.223
38.549
38.696
38.648
38.394
37.916
37.191
36.24
35.084
33.737
32.22
30.541
28.707
26.74
24.661
22.485
20.232
17.908
15.519
13.09
10.641
8.2
5.801
3.45
1.157
-1.057
-3.174
-5.169
-7.022
-8.729
-10.287
-11.688
-12.918
-13.967
-14.821
-15.47
-15.91
-16.142
-16.174
-16.02
-15.718
-15.323
-14.899
-14.516
-14.225
-14.066
-14.07
-14.267
-14.698
-15.366
-16.254
-17.353
-18.652
-20.15
-21.871
-23.773
-25.722
-27.604
-29.309
-30.71
-31.725
-32.184
-31.817
-30.468
-28.154
-24.904
-20.739
-15.915
-10.778
-5.626
-1.145
3.047
8.635
15.495
22.914
28.967
29.366
25.673
23.555
28.14
46.314
75.864
106.752
131.67
141.936
135.654
118.323
90.314
52.339
2.473
-66.568
-154.741
-256.941
-363.017
-454.705
-518.559
-549.782
-551.351
-535.198
-511.925
-485.643
-456.214
-420.234
-376.174
-326.193
-273.688
-222.502
-175.393
-134.092
-99.795
-72.591
-51.974
-37.208
-27.578
-22.459
-20.948
-21.463
-22.208
-22.08
-20.685
-18.063
-14.393
-9.813
-4.565
0.652
4.883
7.598
8.671
8.258
6.743
4.441
1.628
-1.246
-3.67
-5.334
-6.088
-5.935
-5.011
-3.411
-1.207
1.483
4.534
7.829
11.273
14.801
18.349
21.835
25.164
28.237
30.984
33.37
35.373
36.99
38.238
39.139
39.726
40.044
40.13
40.021
39.751
39.352
38.859
38.314
37.756
37.226
36.757
36.369
36.076
35.887
35.803
35.824
35.945
36.158
36.456
36.836
37.296
37.836
38.453
39.145
39.908
40.74
41.637
42.599
43.625
44.714
45.867
47.083
48.364
49.711
51.125
52.606
54.152
55.761
57.433
59.167
60.96
62.81
64.717
66.678
68.693
70.759
72.877
75.043
77.256
79.514
81.814
84.155
86.532
88.942
91.381
93.844
96.325
98.819
101.319
103.818
106.308
108.781
111.23
113.645
116.016
118.336
120.592
122.777
124.879
126.887
128.792
130.582
132.247
133.778
135.163
136.392
137.457
138.348
139.056
139.573
139.89
140.001
139.898
139.577
139.034
138.263
137.264
136.035
134.577
132.89
130.978
128.844
126.493
123.931
121.167
118.207
115.061
111.741
108.258
104.623
100.85
96.954
92.948
88.848
84.668
80.424
76.132
71.806
67.463
63.119
58.788
54.486
50.227
46.026
41.898
37.854
33.907
30.069
26.35
22.76
19.306
15.996
12.836
9.832
6.987
4.305
1.788
-0.564
-2.751
-4.775
-6.637
-8.342
-9.893
-11.295
-12.555
-13.678
-14.671
-15.541
-16.296
-16.942
-17.488
-17.941
-18.31
-18.603
-18.826
-18.989
-19.097
-19.159
-19.181
-19.168
-19.127
-19.061
-18.977
-18.877
-18.765
-18.645
-18.52
-18.39
-18.258
-18.124
-17.991
-17.857
-17.721
-17.585
-17.445
-17.302
-17.152
-16.996
-16.83
-16.654
-16.465
-16.262
-16.043
-15.808
-15.555
-15.282
-14.99
-14.677
-14.345
-13.993
-13.622
-13.234
-12.829
-12.411
-11.982
-11.543
-11.098
-10.65
-10.2
-9.753
-9.311
-8.877
-8.454
-8.045
-7.655
-7.285
-6.939
-6.619
-6.329
-6.07
-5.845
-5.656
-5.504
-5.39
-5.315
-5.28
-5.284
-5.328
-5.411
-5.532
-5.688
-5.879
-6.102
-6.353
-6.63
-6.929
-7.246
-7.578
-7.921
-8.271
-8.625
-8.979
-9.33
-9.674
-10.008
-10.329
-10.634
-10.92
-11.186
-11.428
-11.645
-11.836
-11.999
-12.134
-12.24
-12.318
-12.366
-12.386
-12.379
-12.345
-12.286
-12.203
-12.099
-11.976
-11.836
-11.683
-11.52
-11.351
-11.177
-11.003
-10.832
-10.666
-10.509
-10.363
-10.231
-10.115
-10.017
-9.939
-9.883
-9.851
-9.844
-9.862
-9.908
-9.98
-10.08
-10.208
-10.362
-10.544
-10.752
-10.986
-11.245
-11.528
-11.834
-12.162
-12.509
-12.874
-13.255
-13.649
-14.055
-14.47
-14.893
-15.32
-15.751
-16.183
-16.615
-17.046
-17.473
-17.896
-18.313
-18.722
-19.124
-19.516
-19.897
-20.268
-20.628
-20.975
-21.309
-21.631
-21.939
-22.232
-22.511
-22.774
-23.022
-23.252
-23.467
-23.664
-23.845
-24.008
-24.156
-24.287
-24.402
-24.501
-24.585
-24.653
-24.706
-24.743
-24.765
-24.773
-24.765
-24.743
-24.706
-24.656
-24.593
-24.517
-24.429
-24.329
-24.218
-24.096
-23.965
-23.825
-23.678
-23.525
-23.368
-23.209
-23.049
-22.889
-22.732
-22.578
-22.429
-22.286
-22.15
-22.023
-21.904
-21.796
-21.7
-21.615
-21.544
-21.486
-21.442
-21.413
-21.398
-21.397
-21.409
-21.436
-21.475
-21.527
-21.59
-21.664
-21.748
-21.84
-21.939
-22.043
-22.149
-22.256
-22.361
-22.461
-22.554
-22.638
-22.71
-22.769
-22.811
-22.836
-22.841
-22.824
-22.784
-22.719
-22.626
-22.505
-22.354
-22.172
-21.959
-21.712
-21.433
-21.12
-20.774
-20.394
-19.981
-19.535
-19.055
-18.542
-17.997
-17.42
-16.813
-16.175
-15.51
-14.817
-14.099
-13.358
-12.593
-11.807
-11
-10.172
-9.326
-8.461
-7.578
-6.677
-5.759
-4.824
-3.874
-2.909
-1.93
-0.937
0.069
1.088
2.119
3.161
4.214
5.277
6.348
7.428
8.512
9.6
10.69
11.781
12.869
13.952
15.029
16.096
17.151
18.19
19.211
20.208
21.177
22.112
23.009
23.861
24.661
25.402
26.079
26.685
27.216
27.665
28.029
28.303
28.486
28.574
28.565
28.457
28.247
27.932
27.512
26.987
26.357
25.623
24.785
23.847
22.816
21.695
20.488
19.196
17.819
16.356
14.819
13.215
11.557
9.86
8.141
6.424
4.744
3.134
1.621
0.225
-1.048
-2.182
-3.16
-3.963
-4.577
-4.998
-5.242
-5.318
-5.236
-5.021
-4.715
-4.386
-4.131
-4.035
-4.169
-4.588
-5.329
-6.435
-7.956
-9.914
-12.303
-15.086
-18.197
-21.583
-25.212
-29.005
-32.83
-36.505
-39.788
-42.468
-44.396
-45.4
-45.271
-43.832
-40.961
-36.704
-31.352
-25.24
-18.606
-11.701
-4.856
1.637
7.58
13.131
18.999
25.978
34.524
45.014
57.958
73.636
91.87
110.847
126.848
136.109
136.536
129.404
117.47
102.73
83.992
53.521
3.271
-73.104
-177.83
-299.436
-421.521
-525.165
-590.114
-611.834
-595.178
-551.169
-498.505
-446.965
-399.596
-356.668
-313.487
-269.34
-227.133
-189.737
-160.491
-140.235
-127.216
-119.25
-113.769
-108.604
-102.532
-94.515
-84.002
-71.116
-56.382
-40.713
-25.331
-11.387
0.41
9.575
15.944
19.692
21.087
20.565
18.715
16.126
13.24
10.385
7.772
5.524
3.779
2.625
2.087
2.148
2.771
3.934
5.611
7.767
10.338
13.232
16.359
19.634
22.974
26.295
29.509
32.525
35.252
37.634
39.634
41.23
42.429
43.243
43.693
43.816
43.659
43.268
42.691
41.97
41.142
40.246
39.326
38.424
37.586
36.844
36.224
35.744
35.416
35.248
35.246
35.408
35.727
36.201
36.83
37.611
38.548
39.639
40.877
42.262
43.793
45.457
47.243
49.142
51.138
53.235
55.444
57.748
60.129
62.614
65.219
67.956
70.845
73.853
76.924
80.075
83.345
86.599
89.678
92.663
95.538
98.265
101.159
103.345
103.97
104.231
104.486
106.94
114.233
123.425
132.557
138.709
137.88
133.597
128.853
125.695
127.511
131.871
136.31
140.279
142.272
143.158
144.052
144.738
145.355
145.829
145.93
145.805
145.573
145.195
144.66
143.985
143.164
142.192
141.064
139.761
138.259
136.571
134.711
132.678
130.478
128.116
125.594
122.921
120.106
117.155
114.071
110.863
107.537
104.102
100.564
96.934
93.22
89.431
85.575
81.662
77.703
73.705
69.679
65.635
61.581
57.527
53.483
49.459
45.465
41.509
37.601
33.75
29.964
26.252
22.621
19.077
15.628
12.28
9.038
5.907
2.894
0.002
-2.765
-5.402
-7.906
-10.275
-12.506
-14.598
-16.55
-18.36
-20.028
-21.554
-22.939
-24.183
-25.287
-26.254
-27.085
-27.782
-28.349
-28.789
-29.107
-29.305
-29.389
-29.363
-29.233
-29.002
-28.677
-28.262
-27.763
-27.184
-26.531
-25.81
-25.026
-24.185
-23.293
-22.355
-21.377
-20.365
-19.324
-18.259
-17.177
-16.081
-14.978
-13.872
-12.768
-11.672
-10.588
-9.52
-8.472
-7.45
-6.455
-5.491
-4.561
-3.668
-2.813
-1.999
-1.226
-0.498
0.185
0.822
1.412
1.954
2.448
2.893
3.29
3.64
3.942
4.198
4.407
4.572
4.693
4.771
4.808
4.805
4.763
4.686
4.574
4.431
4.258
4.057
3.831
3.583
3.313
3.024
2.719
2.397
2.062
1.714
1.356
0.988
0.612
0.228
-0.162
-0.557
-0.957
-1.361
-1.768
-2.178
-2.591
-3.005
-3.421
-3.837
-4.254
-4.671
-5.088
-5.503
-5.918
-6.331
-6.744
-7.156
-7.568
-7.979
-8.391
-8.803
-9.216
-9.629
-10.043
-10.457
-10.871
-11.284
-11.697
-12.108
-12.516
-12.92
-13.319
-13.712
-14.097
-14.473
-14.838
-15.191
-15.53
-15.854
-16.163
-16.455
-16.73
-16.987
-17.225
-17.444
-17.644
-17.824
-17.984
-18.124
-18.242
-18.339
-18.415
-18.469
-18.501
-18.512
-18.503
-18.473
-18.423
-18.356
-18.271
-18.172
-18.059
-17.936
-17.806
-17.67
-17.532
-17.395
-17.262
-17.137
-17.022
-16.919
-16.832
-16.762
-16.711
-16.681
-16.674
-16.689
-16.73
-16.795
-16.886
-17.003
-17.147
-17.317
-17.514
-17.737
-17.987
-18.263
-18.565
-18.891
-19.241
-19.613
-20.006
-20.418
-20.845
-21.286
-21.737
-22.194
-22.655
-23.116
-23.573
-24.023
-24.463
-24.89
-25.301
-25.694
-26.067
-26.419
-26.747
-27.051
-27.332
-27.588
-27.819
-28.027
-28.21
-28.371
-28.51
-28.626
-28.722
-28.795
-28.848
-28.881
-28.893
-28.883
-28.853
-28.804
-28.737
-28.654
-28.556
-28.445
-28.323
-28.191
-28.052
-27.905
-27.748
-27.578
-27.395
-27.197
-26.982
-26.749
-26.495
-26.216
-25.911
-25.579
-25.218
-24.822
-24.383
-23.889
-23.336
-22.725
-22.062
-21.352
-20.596
-19.797
-18.962
-18.102
-17.222
-16.32
-15.38
-14.386
-13.331
-12.218
-11.059
-9.865
-8.639
-7.372
-6.052
-4.678
-3.248
-1.756
-0.186
1.49
3.275
5.147
7.059
8.963
10.827
12.633
14.374
16.036
17.594
19.016
20.274
21.354
22.237
22.891
23.269
23.318
23.012
22.365
21.425
20.234
18.815
17.183
15.346
13.326
11.151
8.85
6.439
3.929
1.344
-1.283
-3.896
-6.442
-8.893
-11.257
-13.558
-15.812
-18.015
-20.155
-22.218
-24.197
-26.087
-27.873
-29.531
-31.039
-32.389
-33.581
-34.63
-35.551
-36.33
-36.936
-37.333
-37.502
-37.463
-37.245
-36.885
-36.415
-35.854
-35.243
-34.646
-34.122
-33.731
-33.518
-33.481
-33.631
-34.047
-34.748
-35.696
-36.747
-37.588
-37.91
-37.52
-36.277
-34.096
-31.084
-27.466
-23.675
-20.456
-18.535
-18.481
-20.573
-24.7
-30.297
-36.535
-42.442
-46.729
-47.917
-44.54
-35.621
-20.822
-0.623
23.926
51.805
81.522
110.574
135.914
154.682
164.134
162.22
147.473
117.928
73.305
16.299
-49.974
-123.053
-203.116
-292.602
-389.871
-486.258
-567.056
-617.648
-632.189
-615.801
-580.279
-536.687
-489.407
-435.433
-373.436
-307.595
-245.382
-198.443
-170.918
-156.971
-150.331
-142.861
-131.043
-118.712
-107.679
-98.35
-90.315
-80.949
-69.252
-56.034
-42.19
-28.698
-16.449
-6.195
1.638
6.849
9.492
10.044
8.995
6.686
3.593
0.257
-2.947
-5.693
-7.759
-9.129
-9.78
-9.676
-8.866
-7.408
-5.356
-2.803
0.175
3.516
7.128
10.917
14.79
18.635
22.35
25.84
29.008
31.792
34.155
36.076
37.562
38.629
39.298
39.608
39.606
39.34
38.857
38.201
37.412
36.538
35.626
34.721
33.871
33.108
32.455
31.932
31.551
31.319
31.243
31.322
31.552
31.932
32.461
33.14
33.974
34.962
36.102
37.394
38.835
40.425
42.162
44.047
46.079
48.257
50.581
53.05
55.663
58.419
61.314
64.342
67.496
70.771
74.16
77.654
81.245
84.923
88.681
92.509
96.397
100.335
104.313
108.32
112.345
116.376
120.402
124.41
128.39
132.329
136.215
140.037
143.781
147.436
150.988
154.425
157.735
160.903
163.918
166.767
169.438
171.919
174.198
176.265
178.11
179.723
181.096
182.221
183.091
183.701
184.045
184.118
183.92
183.447
182.699
181.677
180.383
178.819
176.987
174.894
172.543
169.942
167.096
164.015
160.706
157.179
153.446
149.518
145.408
141.13
136.698
132.126
127.432
122.629
117.736
112.769
107.743
102.677
97.587
92.49
87.401
82.336
77.31
72.337
67.431
62.604
57.868
53.234
48.711
44.31
40.038
35.904
31.915
28.077
24.397
20.879
17.528
14.347
11.339
8.506
5.848
3.365
1.057
-1.079
-3.044
-4.842
-6.477
-7.954
-9.277
-10.453
-11.488
-12.388
-13.16
-13.809
-14.344
-14.769
-15.091
-15.316
-15.449
-15.496
-15.461
-15.348
-15.164
-14.912
-14.597
-14.222
-13.794
-13.315
-12.79
-12.222
-11.617
-10.977
-10.306
-9.607
-8.884
-8.14
-7.378
-6.6
-5.808
-5.006
-4.193
-3.374
-2.548
-1.718
-0.884
-0.049
0.785
1.617
2.444
3.263
4.073
4.869
5.649
6.409
7.146
7.857
8.539
9.187
9.8
10.373
10.904
11.389
11.827
12.215
12.551
12.833
13.059
13.228
13.339
13.392
13.385
13.318
13.19
13.002
12.754
12.445
12.077
11.651
11.168
10.63
10.039
9.398
8.711
7.979
7.208
6.401
5.562
4.696
3.806
2.898
1.977
1.047
0.112
-0.822
-1.75
-2.67
-3.576
-4.465
-5.332
-6.176
-6.993
-7.78
-8.535
-9.255
-9.939
-10.584
-11.19
-11.754
-12.277
-12.759
-13.198
-13.597
-13.955
-14.275
-14.558
-14.805
-15.019
-15.203
-15.358
-15.489
-15.597
-15.686
-15.76
-15.821
-15.873
-15.92
-15.964
-16.008
-16.055
-16.107
-16.167
-16.237
-16.318
-16.411
-16.518
-16.644
-16.788
-16.953
-17.142
-17.351
-17.58
-17.832
-18.096
-18.364
-18.632
-18.888
-19.129
-19.372
-19.617
-19.858
-20.138
-20.475
-20.86
-21.313
-21.832
-22.347
-22.829
-23.278
-23.522
-23.408
-23.088
-22.57
-21.753
-21.021
-19.796
-17.314
-14.664
-12.232
-11.879
-16.699
-25.499
-36.029
-43.955
-42.91
-31.633
-13.319
5.329
16.32
15.339
4.34
-9.852
-20.916
-24.44
-20.594
-13.892
-7.374
-2.951
-1.011
0.213
1.47
2.722
4.034
5.093
5.82
6.475
7.131
7.754
8.363
8.943
9.463
9.912
10.26
10.46
10.504
10.415
10.211
9.913
9.539
9.102
8.613
8.084
7.526
6.952
6.375
5.804
5.244
4.689
4.13
3.557
2.939
2.237
1.402
0.37
-0.901
-2.438
-4.266
-6.395
-8.837
-11.6
-14.67
-18.019
-21.612
-25.396
-29.312
-33.294
-37.243
-41.044
-44.584
-47.749
-50.46
-52.662
-54.296
-55.312
-55.662
-55.321
-54.308
-52.678
-50.499
-47.852
-44.806
-41.458
-37.968
-34.449
-30.939
-27.385
-23.584
-19.326
-14.511
-9.101
-3.1
3.298
9.801
15.931
20.877
23.799
24.006
21.115
15.193
6.794
-3.324
-14.121
-23.95
-30.989
-33.343
-29.518
-19.063
-2.366
19.813
46.12
74.123
100.826
122.628
135.699
137.309
125.621
98.848
56.908
2.149
-63.639
-138.18
-219.346
-307.775
-398.994
-483.554
-552.575
-595.96
-611.215
-604.504
-581.324
-547.814
-507.064
-457.699
-400.761
-338.592
-274.02
-211.682
-155.314
-107.433
-69.839
-42.719
-25.18
-15.907
-13.563
-16.556
-22.786
-30.014
-36.091
-39.661
-40.42
-38.575
-34.463
-28.667
-22.002
-15.452
-10.108
-6.578
-4.901
-4.857
-6.051
-8.043
-10.414
-12.689
-14.376
-15.225
-15.176
-14.256
-12.598
-10.314
-7.488
-4.258
-0.766
2.89
6.633
10.398
14.125
17.716
21.077
24.156
26.931
29.414
31.607
33.483
35.035
36.273
37.225
37.93
38.419
38.707
38.813
38.77
38.617
38.408
38.18
37.945
37.706
37.451
37.187
36.949
36.758
36.625
36.555
36.545
36.603
36.75
36.997
37.342
37.784
38.314
38.935
39.662
40.508
41.486
42.6
43.839
45.199
46.679
48.276
49.99
51.817
53.744
55.767
57.887
60.106
62.423
64.834
67.329
69.901
72.544
75.251
78.017
80.836
83.701
86.604
89.537
92.494
95.468
98.448
101.424
104.382
107.312
110.202
113.042
115.819
118.522
121.141
123.665
126.085
128.39
130.571
132.618
134.52
136.269
137.856
139.273
140.512
141.566
142.43
143.097
143.562
143.823
143.873
143.712
143.337
142.746
141.939
140.917
139.68
138.232
136.575
134.714
132.654
130.401
127.96
125.339
122.547
119.59
116.478
113.221
109.827
106.308
102.673
98.935
95.106
91.196
87.218
83.184
79.107
74.997
70.867
66.728
62.593
58.471
54.375
50.314
46.3
42.342
38.45
34.633
30.9
27.258
23.714
20.277
16.951
13.744
10.66
7.704
4.881
2.195
-0.351
-2.755
-5.015
-7.129
-9.098
-10.922
-12.601
-14.138
-15.533
-16.789
-17.908
-18.894
-19.75
-20.48
-21.087
-21.575
-21.95
-22.215
-22.375
-22.437
-22.403
-22.28
-22.074
-21.788
-21.429
-21.002
-20.513
-19.968
-19.374
-18.735
-18.058
-17.35
-16.615
-15.859
-15.088
-14.305
-13.516
-12.726
-11.937
-11.154
-10.381
-9.621
-8.876
-8.15
-7.446
-6.766
-6.113
-5.487
-4.893
-4.33
-3.802
-3.31
-2.855
-2.438
-2.062
-1.725
-1.429
-1.174
-0.959
-0.784
-0.648
-0.549
-0.487
-0.459
-0.464
-0.5
-0.565
-0.659
-0.779
-0.924
-1.093
-1.282
-1.493
-1.722
-1.968
-2.231
-2.508
-2.8
-3.103
-3.418
-3.742
-4.074
-4.412
-4.754
-5.1
-5.446
-5.793
-6.137
-6.478
-6.815
-7.146
-7.473
-7.794
-8.108
-8.416
-8.718
-9.014
-9.303
-9.586
-9.861
-10.127
-10.386
-10.639
-10.885
-11.124
-11.355
-11.572
-11.78
-11.98
-12.164
-12.321
-12.446
-12.527
-12.572
-12.596
-12.584
-12.522
-12.441
-12.362
-12.304
-12.293
-12.306
-12.292
-12.278
-12.31
-12.261
-11.983
-11.563
-10.992
-10.241
-9.629
-8.296
-5.404
-2.151
1.101
2.154
-1.623
-7.323
-13.011
-15.802
-11.734
-4.323
3.453
9.55
10.593
8.983
7.155
5.644
5.931
7.143
8.164
9.198
10.094
10.919
11.89
12.853
13.681
14.407
15.032
15.536
15.914
16.171
16.303
16.327
16.264
16.1
15.82
15.426
14.915
14.29
13.553
12.706
11.75
10.693
9.543
8.307
6.995
5.613
4.169
2.67
1.125
-0.456
-2.062
-3.682
-5.306
-6.923
-8.522
-10.095
-11.631
-13.122
-14.56
-15.938
-17.244
-18.464
-19.581
-20.576
-21.435
-22.147
-22.706
-23.109
-23.355
-23.453
-23.42
-23.274
-23.038
-22.734
-22.386
-22.021
-21.675
-21.389
-21.21
-21.181
-21.335
-21.69
-22.246
-22.999
-23.932
-25.013
-26.202
-27.434
-28.623
-29.689
-30.532
-31.042
-31.126
-30.642
-29.43
-27.448
-24.739
-21.455
-17.877
-14.208
-10.588
-7.31
-4.65
-2.648
-1.157
0.298
2.321
5.131
8.757
13.351
18.901
24.997
30.698
34.343
34.238
29.266
18.507
1.002
-24.105
-57.205
-97.53
-143.083
-191.729
-241.562
-290.588
-336.616
-376.87
-408.625
-430.548
-442.53
-444.689
-437.315
-420.809
-395.885
-364.589
-329.542
-292.459
-254.564
-217.077
-181.05
-147.935
-119.342
-95.499
-75.877
-60.555
-48.371
-38.115
-30.41
-24.281
-20.566
-21.33
-23.456
-24.914
-22.909
-13.511
-0.531
12.23
22.019
25.155
23.982
21.113
17.361
14.393
11.612
8.38
5.285
2.414
-0.029
-1.843
-3.227
-4.284
-4.987
-5.368
-5.469
-5.325
-4.95
-4.324
-3.416
-2.198
-0.697
1.019
2.884
4.846
6.868
8.922
10.98
12.992
14.895
16.651
18.244
19.672
20.934
22.016
22.886
23.512
23.884
24.016
23.934
23.657
23.197
22.574
21.821
20.991
20.153
19.353
18.613
17.952
17.386
16.939
16.644
16.527
16.602
16.875
17.353
18.044
18.958
20.096
21.446
22.986
24.689
26.538
28.522
30.635
32.867
35.209
37.651
40.185
42.808
45.514
48.293
51.133
54.021
56.945
59.896
62.867
65.85
68.836
71.813
74.768
77.688
80.562
83.377
86.122
88.781
91.34
93.783
96.099
98.288
100.333
102.211
103.901
105.38
106.643
107.708
108.571
109.201
109.613
109.861
109.985
110.031
110.003
109.829
109.494
109.077
108.496
107.48
105.987
104.098
101.785
99.365
96.246
90.727
83.275
75.432
69.873
71.495
79.768
89.859
96.868
93.844
80.682
63.905
48.535
40.096
39.299
41.264
43.082
42.673
39.526
35.655
31.918
28.272
24.786
21.161
17.344
13.613
10.052
6.613
3.303
0.136
-2.901
-5.809
-8.599
-11.317
-13.977
-16.519
-18.902
-21.114
-23.14
-24.99
-26.692
-28.242
-29.615
-30.949
-32.415
-33.903
-35.374
-36.878
-38.158
-39.917
-42.812
-45.785
-48.482
-48.766
-44.432
-37.425
-28.785
-22.478
-22.684
-28.215
-38.825
-49.673
-55.6
-56.061
-49.471
-39.839
-31.555
-25.819
-24.913
-26.655
-28.495
-29.97
-29.828
-28.789
-27.85
-26.845
-25.928
-25.019
-23.903
-22.739
-21.655
-20.636
-19.702
-18.86
-18.099
-17.417
-16.809
-16.255
-15.732
-15.247
-14.805
-14.405
-14.046
-13.726
-13.444
-13.198
-12.991
-12.818
-12.676
-12.562
-12.475
-12.412
-12.371
-12.351
-12.35
-12.365
-12.395
-12.439
-12.494
-12.559
-12.632
-12.711
-12.797
-12.887
-12.982
-13.08
-13.183
-13.292
-13.405
-13.525
-13.652
-13.786
-13.928
-14.079
-14.237
-14.405
-14.581
-14.765
-14.957
-15.156
-15.361
-15.571
-15.783
-15.995
-16.204
-16.408
-16.602
-16.782
-16.946
-17.089
-17.208
-17.299
-17.357
-17.38
-17.363
-17.303
-17.195
-17.037
-16.825
-16.556
-16.228
-15.837
-15.383
-14.864
-14.279
-13.629
-12.913
-12.132
-11.286
-10.379
-9.411
-8.387
-7.309
-6.183
-5.014
-3.809
-2.574
-1.316
-0.045
1.233
2.508
3.771
5.013
6.226
7.4
8.525
9.593
10.595
11.521
12.364
13.115
13.767
14.314
14.749
15.068
15.268
15.345
15.297
15.123
14.821
14.392
13.838
13.159
12.36
11.443
10.414
9.281
8.053
6.738
5.346
3.885
2.364
0.796
-0.81
-2.444
-4.098
-5.767
-7.442
-9.104
-10.735
-12.317
-13.836
-15.28
-16.638
-17.89
-19.024
-20.027
-20.895
-21.625
-22.213
-22.648
-22.917
-23.005
-22.916
-22.673
-22.314
-21.876
-21.393
-20.899
-20.435
-20.057
-19.811
-19.727
-19.817
-20.089
-20.541
-21.174
-21.997
-23.007
-24.183
-25.481
-26.816
-28.101
-29.258
-30.204
-30.828
-31.018
-30.625
-29.466
-27.493
-24.715
-21.199
-17.175
-12.865
-8.447
-4.294
-0.877
1.693
3.388
4.291
5.177
6.777
9.669
15
22.676
30.594
37.072
40.447
41.708
45.889
55.72
70.526
81.714
73.985
35.301
-41.451
-148.116
-263.671
-365.965
-432.495
-455.859
-444.374
-411.19
-374.171
-343.466
-319.05
-298.237
-276.161
-250.963
-224.578
-199.338
-177.388
-159.023
-143.289
-128.974
-114.594
-99.551
-83.87
-67.68
-51.518
-35.951
-21.356
-8.235
2.925
11.946
18.795
23.569
26.539
27.959
28.078
27.196
25.596
23.502
21.121
18.647
16.256
14.132
12.423
11.219
10.573
10.506
11.018
12.087
13.671
15.701
18.095
20.767
23.636
26.632
29.675
32.671
35.522
38.128
40.42
42.36
43.923
45.102
45.899
46.326
46.413
46.201
45.731
45.039
44.16
43.124
41.967
40.733
39.463
38.203
36.987
35.838
34.776
33.816
32.97
32.245
31.644
31.162
30.801
30.561
30.448
30.464
30.612
30.892
31.304
31.846
32.519
33.322
34.257
35.322
36.518
37.844
39.303
40.894
42.617
44.469
46.448
48.549
50.766
53.095
55.528
58.06
60.683
63.389
66.171
69.019
71.927
74.883
77.879
80.904
83.948
87
90.049
93.084
96.095
99.07
101.999
104.871
107.675
110.401
113.038
115.576
118.005
120.315
122.494
124.534
126.426
128.16
129.727
131.121
132.334
133.358
134.188
134.819
135.245
135.463
135.47
135.263
134.842
134.206
133.357
132.295
131.025
129.55
127.874
126.003
123.944
121.702
119.286
116.702
113.96
111.068
108.037
104.876
101.597
98.21
94.727
91.16
87.522
83.824
80.08
76.301
72.502
68.694
64.89
61.103
57.345
53.628
49.963
46.361
42.833
39.386
36.029
32.77
29.616
26.572
23.644
20.835
18.15
15.593
13.165
10.868
8.704
6.674
4.777
3.012
1.38
-0.123
-1.498
-2.748
-3.876
-4.886
-5.781
-6.567
-7.249
-7.83
-8.319
-8.719
-9.038
-9.281
-9.455
-9.566
-9.618
-9.618
-9.569
-9.478
-9.348
-9.183
-8.987
-8.763
-8.514
-8.243
-7.953
-7.645
-7.323
-6.988
-6.641
-6.284
-5.919
-5.547
-5.168
-4.783
-4.394
-4
-3.603
-3.202
-2.796
-2.387
-1.972
-1.552
-1.126
-0.693
-0.253
0.195
0.651
1.116
1.588
2.067
2.554
3.047
3.545
4.047
4.552
5.058
5.565
6.069
6.571
7.068
7.559
8.042
8.516
8.979
9.43
9.867
10.289
10.694
11.082
11.449
11.796
12.119
12.418
12.691
12.937
13.155
13.342
13.499
13.625
13.719
13.781
13.81
13.808
13.775
13.711
13.618
13.496
13.347
13.173
12.973
12.751
12.506
12.241
11.958
11.657
11.341
11.011
10.669
10.317
9.957
9.591
9.222
8.852
8.483
8.117
7.758
7.407
7.066
6.74
6.429
6.135
5.862
5.609
5.38
5.174
4.994
4.84
4.713
4.613
4.541
4.498
4.485
4.502
4.549
4.628
4.738
4.881
5.055
5.262
5.501
5.771
6.073
6.406
6.769
7.16
7.581
8.028
8.5
8.997
9.516
10.056
10.616
11.194
11.788
12.399
13.025
13.665
14.319
14.988
15.669
16.363
17.07
17.788
18.518
19.258
20.008
20.766
21.533
22.307
23.087
23.872
24.661
25.453
26.248
27.043
27.839
28.634
29.428
30.22
31.01
31.797
32.58
33.36
34.133
34.899
35.656
36.402
37.134
37.849
38.545
39.217
39.862
40.476
41.056
41.598
42.097
42.551
42.956
43.308
43.604
43.841
44.016
44.126
44.168
44.142
44.044
43.873
43.626
43.302
42.9
42.417
41.855
41.21
40.484
39.675
38.787
37.826
36.796
35.703
34.552
33.348
32.098
30.81
29.489
28.139
26.765
25.371
23.963
22.551
21.142
19.745
18.364
16.998
15.651
14.327
13.029
11.766
10.544
9.372
8.268
7.251
6.334
5.54
4.879
4.355
3.968
3.701
3.542
3.495
3.556
3.731
4.004
4.316
4.623
4.89
5.077
5.194
5.211
5.005
4.583
4.06
3.555
3.292
3.344
3.512
3.785
4.332
5.119
6.061
6.928
7.177
6.691
5.829
4.708
3.362
1.944
0.497
-0.493
0.008
2.584
7.431
14.746
24.445
36.464
50.876
66.896
82.864
97.041
107.57
112.818
111.673
102.794
84.651
56.918
20.544
-22.741
-70.394
-119.96
-169.331
-215.366
-254.298
-283.652
-302.002
-309.86
-308.809
-298.754
-280.275
-253.55
-219.657
-184.109
-150.454
-122.752
-105.207
-94.619
-88.671
-84.618
-77.171
-67.464
-57.22
-46.57
-37.245
-28.425
-18.584
-8.307
1.509
10.173
17.069
22.208
26.001
28.505
29.572
29.406
28.43
26.966
25.332
23.704
22.104
20.657
19.537
18.818
18.522
18.645
19.146
20.008
21.228
22.766
24.565
26.561
28.69
30.889
33.098
35.245
37.237
39.005
40.506
41.709
42.602
43.177
43.43
43.373
43.037
42.451
41.645
40.647
39.483
38.182
36.781
35.319
33.838
32.371
30.942
29.571
28.274
27.064
25.953
24.946
24.04
23.237
22.539
21.95
21.478
21.123
20.885
20.764
20.759
20.869
21.094
21.432
21.882
22.443
23.114
23.892
24.779
25.772
26.867
28.059
29.343
30.713
32.163
33.686
35.275
36.923
38.624
40.37
42.154
43.97
45.81
47.666
49.531
51.398
53.257
55.103
56.926
58.72
60.476
62.189
63.851
65.456
66.996
68.467
69.861
71.174
72.4
73.532
74.567
75.5
76.326
77.04
77.64
78.12
78.478
78.71
78.814
78.785
78.622
78.321
77.881
77.301
76.578
75.713
74.704
73.553
72.26
70.826
69.252
67.542
65.697
63.72
61.615
59.385
57.034
54.566
51.987
49.302
46.516
43.635
40.666
37.615
34.491
31.301
28.053
24.755
21.415
18.044
14.65
11.242
7.829
4.422
1.029
-2.34
-5.676
-8.971
-12.216
-15.403
-18.525
-21.574
-24.544
-27.428
-30.223
-32.923
-35.523
-38.02
-40.41
-42.691
-44.861
-46.918
-48.863
-50.697
-52.42
-54.036
-55.549
-56.963
-58.283
-59.514
-60.662
-61.732
-62.732
-63.666
-64.542
-65.365
-66.146
-66.891
-67.612
-68.318
-69.019
-69.726
-70.448
-71.196
-71.979
-72.802
-73.67
-74.591
-75.571
-76.619
-77.742
-78.942
-80.216
-81.563
-82.977
-84.447
-85.958
-87.487
-89.009
-90.501
-91.944
-93.325
-94.631
-95.853
-96.978
-97.994
-98.898
-99.697
-100.402
-101.024
-101.572
-102.061
-102.52
-102.996
-103.531
-104.167
-104.929
-105.833
-106.907
-108.164
-109.602
-111.212
-112.938
-114.705
-116.456
-118.128
-119.625
-120.854
-121.697
-122.018
-121.735
-120.793
-119.075
-116.451
-112.944
-108.636
-103.412
-97.284
-90.334
-82.332
-74.192
-66.83
-59.209
-51.098
-40.545
-25.193
